subject,label,t0,ok_p1,ok_p2,HR,SDNN,RMSSD,DR,RI,AR,log10_Ew,E_ratio,n_beats,notch_rate,p2_HR,p2_SDNN,p2_RMSSD,appg_ba,appg_ca,appg_da,appg_ea,appg_agi,p2_log10_Ew,p2_E_ratio,appg_rate,appg_rate_full,p2_n_beats
2,-1,30.0,True,True,81.50943396226414,138.90057376060633,138.87803777055606,,,,2.8704553269919537,0.4697140809945158,39.0,0.4358974358974359,87.37131866820336,143.44335517459737,86.57538799938791,-0.6939408846822164,0.20052279667439027,-0.30602266427365626,,,2.8704553269919537,0.44361921202728916,0.98,0.48,50.0
2,-1,60.0,True,True,76.97104677060135,102.51241487938188,70.57243619147634,0.3825149014862468,0.6788285425189611,1.398765873233071,2.246652601168234,0.33716409131391095,63.0,0.5714285714285714,83.32383568151516,138.50723745011663,94.59407729436037,-0.8451242257135203,0.26852730155350446,-0.17991819878413762,,,2.246652601168234,0.26427023754151774,0.953125,0.359375,64.0
2,-1,90.0,True,True,74.02692778457772,71.794532417954,62.12847549773303,0.43979817750181915,0.6319466284847561,1.4843275174385167,1.8014474209838727,0.4343783683697748,68.0,0.7352941176470589,81.26523957022033,148.44664760887963,100.3785394859772,-0.9228854785966776,0.3758915430553654,-0.22953132925702932,,,1.8014474209838727,0.3595475121322295,0.9411764705882353,0.20588235294117646,68.0
2,-1,120.0,True,True,73.39568930459536,65.73702774392066,56.44233715731913,0.4561299899837397,0.6259673701496778,1.5133499917202304,2.88591981821773,0.8233242482592871,54.0,0.6666666666666666,73.30867725576138,68.25978185220369,55.99100967109384,-0.9169626226207678,0.347789091310513,-0.23181004496966795,,,2.88591981821773,0.8233242482592871,0.9672131147540983,0.26229508196721313,61.0
2,-1,150.0,True,True,73.98843930635839,78.86667181437875,94.1830277084642,0.3974032801628096,0.6591976893817618,1.4891857324272506,2.9825163628986764,0.5910073783095652,49.0,0.5510204081632653,75.79049462161186,115.88266244018962,62.43659632326313,-0.8722314625181807,0.294566498228068,-0.20417820166862927,,,2.9825163628986764,0.5131896473109139,0.9649122807017544,0.2807017543859649,57.0
2,-1,180.0,True,True,77.74011299435028,159.27647569163696,115.4695991445926,,,,3.0326688150663514,0.4949625986924924,55.0,0.38181818181818183,81.85839196469252,165.87815969439805,82.2984281913102,-0.8590405196114647,0.25545325756273923,-0.21215793185559587,,,3.0326688150663514,0.39027020806735063,0.953125,0.265625,64.0
2,-1,210.0,True,True,75.97122302158273,257.07431336547324,161.8778152908339,,,,2.9144557188352778,0.38981465048787356,49.0,0.24489795918367346,86.48548353581707,173.42129786190657,102.47655351495852,-0.8822376239182029,0.16579371632530102,-0.2717170750506298,,,2.9144557188352778,0.3245361415799896,0.8627450980392157,0.27450980392156865,51.0
2,-1,360.0,True,True,73.57009345794393,142.65973743833825,65.41896929880238,0.2715816383111723,0.8058871270413679,1.257952527341761,2.3716131635990836,0.48884615273066057,52.0,0.5,71.18692539940781,112.1573607826423,70.24359057165192,-0.8405155282765393,0.23760862695812862,-0.21966643681687914,0.13899899097177254,-1.0421538175439002,2.3716131635990836,0.4462236338676225,1.0,0.5892857142857143,56.0
2,-1,390.0,True,True,70.30985915492958,92.8282112105943,62.262807493476366,0.25311301022359656,0.7984222097739851,1.2567756349922543,2.3248022972538123,0.5347615929715746,51.0,0.5098039215686274,71.49015691876487,116.62765941879204,63.77508952804155,-0.8413737478821239,0.23997454327877799,-0.24303172124486133,0.13010848244392303,-1.0409308523053185,2.3248022972538123,0.44819821121698294,1.0,0.5254237288135594,59.0
2,-1,420.0,True,True,72.02369200394867,84.5816150757323,54.72031578453129,,,,2.742633544297264,0.34634414576815736,47.0,0.40425531914893614,76.17109994964575,144.5875039231109,75.81828225805887,-0.8926802804074656,0.29200423240521034,-0.23520084742664543,,,2.742633544297264,0.27813379237812585,1.0,0.3387096774193548,62.0
2,-1,450.0,True,True,74.38877755511022,137.07153420018545,111.58481919598204,,,,3.1215227453195884,0.4196620306188295,42.0,0.23809523809523808,77.41588532542266,175.8791357587639,62.93063525849672,-0.8618462688153647,0.25600610413495206,-0.21752792303487847,,,3.1215227453195884,0.4321081595182265,0.9655172413793104,0.3793103448275862,58.0
2,-1,480.0,True,True,69.00437105390967,185.58104459555045,123.30887285593037,,,,2.551138427080065,0.33232243682228607,49.0,0.3673469387755102,74.83301541767739,111.7548746394007,72.71364655538976,-0.8040817598909323,0.20181703952412186,-0.22349836848586063,0.1929200403030032,-0.9441571810524654,2.551138427080065,0.25910133896538823,0.95,0.5833333333333334,60.0
2,-1,510.0,True,True,72.55060728744938,103.68122818486518,91.39715002046151,0.258859719209518,0.8064225734058095,1.253764686119968,1.943499264042715,0.23856688478557986,61.0,0.5409836065573771,74.31024385238578,101.35841965850814,56.301076314291386,-0.8621132495959151,0.22386598469845737,-0.22349836848586063,,,1.943499264042715,0.217361449007218,0.967741935483871,0.46774193548387094,62.0
2,-1,540.0,True,True,72.6075022872827,90.58457437767076,65.18361380570987,,,,1.7051518065339264,0.3202009689081004,66.0,0.4696969696969697,76.31584444276686,114.64083870932943,60.6979210376925,-0.9138910664785926,0.218479676439031,-0.1386808271667239,,,1.7051518065339264,0.2538046976486999,0.9714285714285714,0.44285714285714284,70.0
2,-1,570.0,True,True,71.43288084464555,111.60945541362177,56.64543544843536,,,,2.78049555277861,0.4864988757695296,50.0,0.38,77.2541059373632,161.1913559537359,94.25002032307214,-0.8802291686081949,0.19481314257791166,-0.1549589143468508,0.15816639185402126,-1.0004803640914213,2.78049555277861,0.4704822695069632,1.0,0.5409836065573771,61.0
2,-1,600.0,False,True,,,,,,,,,,,73.67164613729834,181.30589836289613,81.14665144742378,-0.7750665787319581,0.20493333463922345,-0.15730071023898268,,,2.966486833037796,0.5236182391131136,0.9791666666666666,0.4583333333333333,48.0
2,-1,630.0,True,True,69.2411720510894,119.70610227879277,106.78390940972113,0.19382565127823514,0.884623285172267,1.3176082350424827,2.9138362364458033,0.5667962066630159,35.0,0.5714285714285714,74.92414964935999,172.7937929322326,57.69330909251455,-0.7519152827986475,0.17910549007225074,-0.2206369385834563,0.09381687351454954,-0.7393088398364098,2.9138362364458033,0.32853500883964964,0.9629629629629629,0.5370370370370371,54.0
2,-1,660.0,True,True,70.06315789473685,113.10766707417113,102.68312053199152,,,,2.902587349381203,0.32254839059519186,37.0,0.4594594594594595,75.15646675890743,141.4329469316338,61.01488148012474,-0.7642887838771797,0.1917830803018657,-0.20821251354783082,0.09636502726722461,-0.7713217329580095,2.902587349381203,0.22828215388030718,0.9666666666666667,0.5666666666666667,60.0
2,-1,690.0,True,True,69.78086584714056,119.70838430654852,117.63456390449196,0.2574421366141855,0.8324798989192822,1.2543755868851973,2.8212879602924357,0.38129348330115065,44.0,0.5,71.68650338953125,92.57567828433476,68.22987401975963,-0.7827154403230331,0.2391732231504532,-0.15404909020531926,0.1247486554403992,-0.9872711101160174,2.8212879602924357,0.33330425303577144,1.0,0.6666666666666666,60.0
2,-1,720.0,True,True,71.13343799058084,92.9152639457517,70.82972885869378,0.21835556107380122,0.8649078016626016,1.2686418344398276,1.953856314397347,0.3370519117813404,63.0,0.7142857142857143,72.64505214023049,88.07565057870103,65.09315656438015,-0.8386346054778395,0.24215321057409175,-0.1467048584983753,0.1787113056417427,-1.0769554464396522,1.953856314397347,0.3778701353077734,0.9701492537313433,0.5671641791044776,67.0
2,-1,750.0,True,True,72.39819004524887,60.2231977390637,72.53971078628206,0.24951008974923952,0.8243464088291547,1.236445300600108,2.507693451284271,0.7776626753089894,57.0,0.6666666666666666,73.83142721565848,84.82879115744022,49.86717239246892,-0.8115951469088689,0.25573929638383264,-0.22210490360065238,,,2.507693451284271,0.6724098582582478,0.967741935483871,0.4838709677419355,62.0
2,-1,780.0,True,True,72.81121187139324,92.72792294253505,97.75249617641961,,,,2.8086596673928566,0.3555941971019926,54.0,0.46296296296296297,74.18179321356588,113.98644914555946,71.37972223167479,-0.8087977181005762,0.21394017960983622,-0.2040808399789209,,,2.8086596673928566,0.3260350423328476,0.9836065573770492,0.45901639344262296,61.0
2,-1,810.0,True,True,71.34551992807911,80.39848732683605,80.66193436962692,,,,2.051874758691826,0.36412735879787894,64.0,0.40625,72.58403545661226,108.14001294307451,68.4451992060627,-0.8284329875214744,0.21309629549240452,-0.2040808399789209,,,2.051874758691826,0.3948718725617512,1.0,0.45454545454545453,66.0
2,-1,840.0,True,True,70.93596059113301,47.83330688103365,57.24180445820676,0.3326816077011758,0.7258955697726075,1.3997442873088928,2.0976876839408214,0.37834756294559085,63.0,0.5714285714285714,72.40178409994472,87.04065343944762,67.33309543629841,-0.8352480399692684,0.30069896514254874,-0.2345954977559848,,,2.0976876839408214,0.4073934452507102,1.0,0.26153846153846155,65.0
2,-1,870.0,True,True,72.31638418079096,67.86962408710166,63.75911927479609,0.351460437434316,0.7185989321325057,1.4342670038768808,2.365619759068136,0.5267742187409264,57.0,0.543859649122807,74.76131889117215,116.2016948764369,56.734596794037664,-0.8261094951131551,0.30675978680036003,-0.2439441101706279,,,2.365619759068136,0.482118100084848,0.9841269841269841,0.30158730158730157,63.0
2,-1,900.0,True,True,71.94379391100702,106.36821171921125,82.45572445993135,,,,2.40997862977033,0.38765713480787417,50.0,0.42,76.29823161781393,144.1832431435788,48.76393872885151,-0.7094013933488286,0.14866007823327662,-0.281665305232659,0.21565515683906678,-0.846517547415388,2.40997862977033,0.3255981370534328,0.9642857142857143,0.5,56.0
2,-1,930.0,True,True,72.21061429168408,122.72833221811663,97.40889281091665,0.2132133501860916,0.8604698591429863,1.2362606646798542,2.210606746672917,0.41571526358403743,56.0,0.5357142857142857,74.2204165561186,135.16973429165867,57.13185446669738,-0.7595515797102989,0.15482706939717145,-0.30299513748770807,,,2.210606746672917,0.3803146094219417,0.9672131147540983,0.4098360655737705,61.0
2,-1,960.0,True,True,69.89293361884368,159.75480983277433,121.9540197746232,,,,2.009179956657684,0.41364671218292604,59.0,0.4745762711864407,74.17391799193479,152.4139171184768,82.14231641745626,-0.7935873437228793,0.18501079054848898,-0.22492437748376526,,,2.009179956657684,0.37205830064811013,0.9538461538461539,0.49230769230769234,65.0
2,-1,990.0,True,True,70.58823529411765,158.30913595086736,115.87810136086974,,,,1.900393848186452,0.5623278278867861,57.0,0.42105263157894735,79.3988459392622,170.48981839811427,96.86110061065901,-0.8475822027706092,0.1771086400713145,-0.13893435931493048,0.16240972503469464,-1.115166863822283,1.900393848186452,0.4291574509084449,0.9696969696969697,0.5454545454545454,66.0
2,-1,1020.0,True,True,70.09126466753587,97.04046928251857,97.1682518658902,0.29875075218948355,0.760652732098593,1.3931374503413416,1.8960330650543236,0.5694151336165183,60.0,0.5833333333333334,73.50976374014088,127.60202676025034,79.88390908958088,-0.7862081725069049,0.2464395107855758,-0.1855924981710964,,,1.8960330650543236,0.5427523424775355,0.984375,0.453125,64.0
2,-1,1050.0,True,True,69.01432181971356,104.55163934641848,100.70839527684515,0.25205529897403894,0.8066838097811052,1.2130668368916862,1.762565023819632,0.2727386117498358,66.0,0.5,72.88477073472953,134.87624507481988,53.86792412009721,-0.6876972776232367,0.2123409590194912,-0.2283954572977916,,,1.762565023819632,0.23779569871081369,0.9705882352941176,0.38235294117647056,68.0
2,-1,1080.0,True,True,69.83713355048859,87.82123364721832,74.03863836337838,,,,1.887785121564711,0.20639798163912337,68.0,0.3382352941176471,70.3466515790057,74.25118097807122,58.694705767546324,-0.6963224903396789,0.18239362395241182,-0.18175496413592807,,,1.887785121564711,0.20639798163912337,0.9857142857142858,0.4714285714285714,70.0
2,-1,1110.0,True,True,70.77288941736028,58.52740327540441,51.29157533582913,,,,2.0072066426057016,0.247355933661494,66.0,0.3787878787878788,72.49122451220497,109.61207151919545,47.768189093641084,-0.7812069861171949,0.2082916262048877,-0.18808332411414286,,,2.0072066426057016,0.26338167618812547,1.0,0.4307692307692308,65.0
2,-1,1140.0,True,True,69.14304768256086,104.73712051650931,80.93355931834563,,,,2.1801604713629064,0.4104025975583266,60.0,0.48333333333333334,74.04576721326744,143.73123955102463,98.46986061702839,-0.8978065372336284,0.2468987361031273,-0.04563917225867713,0.09506079281834026,-1.2464773685387645,2.1801604713629064,0.3521724309844921,0.9841269841269841,0.6031746031746031,63.0
2,-1,1170.0,True,True,69.6168108776267,117.84303962604675,91.75904072344686,,,,2.5564902318364044,0.4593430693932901,52.0,0.40384615384615385,71.12054537032274,105.008687771751,59.257375622777445,-0.8271289858220858,0.20635216817679325,-0.06506960794874617,0.11300250930967365,-1.0359831692274748,2.5564902318364044,0.4048675114436238,0.9818181818181818,0.6363636363636364,55.0
2,-1,1200.0,True,True,71.23382226056945,97.92382708085186,74.02432501849945,,,,2.3347837645807235,0.4359484074952188,52.0,0.4230769230769231,74.12900648517444,150.84920399873653,49.30629804787072,-0.8031936160421266,0.17679623617904483,-0.16374654141965828,0.157744027394681,-0.9437040632011782,2.3347837645807235,0.4708877644171934,1.0,0.5,60.0
2,-1,1230.0,True,True,69.90737783455765,93.04326475856786,80.52561704203204,0.3161744016142723,0.7564504269972845,1.4460912414253557,1.6565298014843388,0.3782158896064187,62.0,0.5,80.28939865862253,179.44857820679476,108.63353348468821,-0.8832166577058767,0.25396353012831685,-0.19537621189699672,,,1.6565298014843388,0.24880482141662275,0.9852941176470589,0.4117647058823529,68.0
2,-1,1260.0,True,True,71.74041297935104,95.96096658336026,94.68993679320924,,,,2.497960750265318,0.2523345227867264,61.0,0.47540983606557374,73.40087234456458,114.46730430840927,81.07006245079813,-0.8798154964470717,0.23531182254455296,-0.1433490717520507,0.10506969932741295,-1.0866788415835937,2.497960750265318,0.2809215926509356,0.96875,0.515625,64.0
2,-1,1290.0,True,True,73.1002331002331,90.49818493430165,99.1734816585851,,,,2.7106661187156593,0.3716832808769205,57.0,0.43859649122807015,75.60541147734257,110.77761860070892,59.44246644566568,-0.7659283961606682,0.17249866329335736,-0.23031814995974464,,,2.7106661187156593,0.288630894060391,0.8852459016393442,0.47540983606557374,61.0
2,-1,1320.0,True,True,74.73053892215569,79.08069302690375,88.89920301313711,,,,2.363107985857372,0.4262180049066238,68.0,0.45588235294117646,76.08037086010422,76.4974073363007,53.23800580460509,-0.6840650944530372,0.16016917030307468,-0.20509777236892957,,,2.363107985857372,0.3796051818927478,0.9253731343283582,0.3880597014925373,67.0
2,-1,1350.0,True,True,74.45358401880141,89.48892542595857,80.99245910809876,,,,2.353094153262037,0.3836805937203978,68.0,0.47058823529411764,74.08346502869865,60.1342638071076,57.187889392549636,-0.7045867646495838,0.1703954931359953,-0.21128870185732937,,,2.353094153262037,0.3836805937203978,1.0,0.2857142857142857,70.0
2,-1,1380.0,True,True,75.42087542087542,98.84816217267759,89.64992679863158,,,,3.44632663034776,0.3531864623741623,48.0,0.3125,76.25188922996063,116.43754181859246,85.34070573509089,-0.739134144684613,0.16773646523582503,-0.23445318877982288,,,3.44632663034776,0.3531864623741623,1.0,0.3090909090909091,55.0
2,-1,1440.0,True,False,83.11688311688312,238.37879211333328,147.58019396692697,,,,3.2053262267460503,0.4781022579997183,50.0,0.24,,,,,,,,,,,,,
2,-1,1470.0,True,False,82.30251071647275,199.77234778648935,183.52051794268777,,,,2.784448311059446,0.3186744712549117,47.0,0.2127659574468085,,,,,,,,,,,,,
2,-1,1560.0,True,True,66.3376110562685,174.7656087119127,195.5365562675085,,,,2.9586063498041058,0.5720010162842037,45.0,0.4,71.5416875900407,158.4545180546179,73.1863524702398,-0.7963620858959475,0.2587810337578748,-0.2795835784455062,,,2.9586063498041058,0.45745748312807777,0.9591836734693877,0.4897959183673469,49.0
2,-1,1590.0,True,True,68.40579710144927,177.23940532956553,205.63624675653278,,,,2.3936250831286516,0.24187600011966984,63.0,0.36507936507936506,70.35856334552409,84.83613153527611,58.97350004648614,-0.749187023866992,0.26862293757532024,-0.2766811667822913,,,2.3936250831286516,0.22105931765239312,0.9830508474576272,0.288135593220339,59.0
2,-1,1620.0,True,True,68.32740213523131,215.71975239665483,199.23451855126146,,,,2.4790777013483614,0.34967540921090007,62.0,0.3387096774193548,71.82785669716141,113.22388999002294,59.54910509228101,-0.7237426041608924,0.23814535176900908,-0.26596532228993375,,,2.4790777013483614,0.27325996322259394,0.9827586206896551,0.20689655172413793,58.0
2,-1,1650.0,True,True,68.9264756644805,227.19467959157643,188.6089169888538,,,,2.5584581844870966,0.27955437313259374,60.0,0.2833333333333333,73.46891024111643,144.16807438136684,80.7224213849042,-0.7148522547987778,0.21095790570793224,-0.2402863569926589,,,2.5584581844870966,0.2396309240006763,0.9482758620689655,0.25862068965517243,58.0
2,-1,1680.0,True,True,71.89787234042554,168.02702922902844,181.0613242108872,,,,2.6308495732368606,0.2630613112873097,54.0,0.25925925925925924,74.44348079074433,140.68615403250433,82.65828556885388,-0.7289774771529685,0.2090863957363539,-0.2541602557557202,,,2.6308495732368606,0.25217671429361893,0.9666666666666667,0.4,60.0
2,-1,1710.0,True,True,73.312693498452,172.361659162825,170.8251428823915,,,,2.8834614834525167,0.38158787326136095,50.0,0.32,75.8041090810951,146.90266770326173,69.09692001291202,-0.7416073292719945,0.18855806683452542,-0.2683318635477302,,,2.8834614834525167,0.2771300494296486,0.96,0.44,50.0
2,-1,1740.0,True,True,71.03057757644393,185.739569986412,169.1706434261637,,,,2.861689932457969,0.41634911732740437,60.0,0.38333333333333336,73.92601847055433,155.25262156949483,58.69434588186315,-0.7070524444261248,0.18112461448774314,-0.24728355458927187,,,2.861689932457969,0.39312814792665984,0.9811320754716981,0.4716981132075472,53.0
2,-1,1770.0,True,True,71.77570093457943,176.6615688140274,148.48218720936953,,,,2.82622750825375,0.5542860393934413,50.0,0.34,75.3539581463823,156.3664031429266,61.144023129032846,-0.6983885646295315,0.19308104882494032,-0.20350118163506156,,,2.82622750825375,0.45407559335619535,1.0,0.4528301886792453,53.0
2,-1,1830.0,True,True,66.71814671814671,102.54418239683002,83.49166017680417,0.340247383947901,0.7405505293420558,1.3834097858900114,1.6677387195546869,1.3369869205201794,53.0,0.6792452830188679,67.85116892681278,88.80183738956964,56.191180040047875,-0.8889158676725889,0.2542196437144365,-0.16117200767280232,0.13941699531145715,-1.068682117906505,1.6677387195546869,1.3369869205201794,1.0,0.7090909090909091,55.0
2,-1,1860.0,True,True,65.75767366720517,86.41908455511839,84.17406136324288,0.2778292449807027,0.8116924889551923,1.2737380972654775,1.425521841708936,1.085908725891447,60.0,0.7,70.7110186955356,153.46620227544003,74.33353441159576,-0.8465952769295562,0.285057851960084,-0.22385526430386682,0.11183534907756014,-1.0135963933891907,1.425521841708936,0.8452654634588586,0.9672131147540983,0.6229508196721312,61.0
2,-1,1890.0,True,False,66.17232375979113,74.9842155107165,80.83829989037787,0.27156384790819854,0.8203978035949782,1.2086141907950474,2.2953746091066667,2.4013839486035655,39.0,0.7692307692307693,,,,,,,,,,,,,
2,-1,1920.0,False,True,,,,,,,,,,,82.70843424569347,131.39975904919328,47.798701679177924,-0.8012825370519534,0.22527714129422124,-0.2889143551000145,,,2.363981254236423,1.353260971133495,1.0,0.39473684210526316,38.0
2,-1,2010.0,True,True,79.05882352941177,99.01509963312235,130.7281291459493,,,,2.965646120054595,0.48850586283682684,35.0,0.2571428571428571,78.4926250911739,69.51422386171627,64.177053840835,-0.6745298488218698,0.13240224335563125,-0.3734224719359919,0.2159047810380656,-0.48309793772360665,2.965646120054595,0.48850586283682684,0.9555555555555556,0.5777777777777777,45.0
2,-1,2070.0,True,True,74.62897526501766,162.81466018235577,117.89222624468745,,,,1.514540349447756,0.35748615202412176,55.0,0.32727272727272727,73.03988148131985,96.42252387817207,42.99506085021137,-0.695256356714288,0.15268832869635504,-0.2523895471951861,0.12113994940618437,-0.6435363496321226,1.514540349447756,0.3943397939646856,1.0,0.6739130434782609,46.0
2,-1,2100.0,True,True,77.49747729566096,135.05947096414744,124.62902926423213,,,,1.7247992690692717,0.5105807195583728,57.0,0.2807017543859649,75.80917598736067,129.54637243883977,38.133390614512926,-0.7303469438140422,0.1970000965592173,-0.28380357723699356,0.1527088814406249,-0.6641500112025606,1.7247992690692717,0.4666623178294522,0.98,0.5,50.0
2,-1,2130.0,True,True,78.56777493606138,136.59134402450204,146.21416049468897,,,,1.5048025497208324,0.46261721128912164,56.0,0.32142857142857145,78.55520532815173,128.0126067938247,45.22613424532341,-0.7292858566605614,0.21178774951733254,-0.2820368026130948,,,1.5048025497208324,0.46261721128912164,0.9814814814814815,0.3888888888888889,54.0
2,-1,2160.0,True,True,77.87831513260531,159.22956172592185,150.01511270594898,,,,1.7354538978736542,0.6147619515533983,46.0,0.3695652173913043,79.3964495150641,119.22930422737636,52.06305350115484,-0.6627338314661086,0.1897242230284617,-0.2910187787142512,,,1.7354538978736542,0.5560911516935371,0.9649122807017544,0.47368421052631576,57.0
2,-1,2970.0,True,True,68.36300477637863,124.79976340170663,147.5163303106925,,,,2.4394559608312587,0.24318584329134835,50.0,0.26,69.60793999168085,75.87116145929359,86.01888913087625,-0.5488689628042981,0.0806563396267033,-0.32228538495063075,0.09571165175281306,-0.4350936596600362,2.4394559608312587,0.216425542714647,0.9259259259259259,0.6666666666666666,54.0
2,-1,3000.0,True,True,72.35974304068523,181.60543434970828,164.9899381401787,,,,2.1162624941986596,0.20828135424069952,55.0,0.18181818181818182,73.94374097325148,129.8231108244103,71.41766340730034,-0.5929622521816644,0.08890867751618942,-0.2578540612071193,0.03630241569135463,-0.5352160533763343,2.1162624941986596,0.1934131259199191,0.9423076923076923,0.5384615384615384,52.0
2,-1,3030.0,False,True,,,,,,,,,,,76.97781985757388,133.89455503538017,70.00544207510134,-0.5937921430789546,0.13241926697444056,-0.25104292123003674,0.10108153828977817,-0.48673131544276005,2.551093221448133,0.6734087636027629,0.96,0.52,50.0
2,-1,3060.0,True,True,72.99649824912456,165.42087568306846,153.2923192995983,,,,2.5610324123158126,0.7591681728093356,52.0,0.2692307692307692,74.2034478472246,114.15017579324382,82.45262601409108,-0.6145068138462744,0.15282795862611773,-0.2150805245168047,0.08451411877583778,-0.6421618132956783,2.5610324123158126,0.6706319985770398,0.9607843137254902,0.5686274509803921,51.0
2,-1,3090.0,True,True,72.18920557913887,173.40321333574326,179.0369457435433,,,,2.6924823321598153,0.5137307266962563,48.0,0.16666666666666666,75.48873671887273,182.0040036691843,111.22077095328862,-0.750049721068112,0.17994571973004675,-0.2568802256515729,,,2.6924823321598153,0.39213813220187965,0.9791666666666666,0.4375,48.0
2,-1,3120.0,True,False,74.05558706749858,163.70168444826325,146.00455956741104,,,,2.9827542236702667,0.4990944172059615,49.0,0.24489795918367346,,,,,,,,,,,,,
2,-1,3150.0,True,True,72.58979206049149,163.1526947911129,166.22959973947314,,,,2.130044521663271,0.23737762155878578,59.0,0.3050847457627119,76.60496579347765,129.7074506547042,60.228727832182855,-0.6171740667467424,0.1501309370594379,-0.2453912758547973,,,2.130044521663271,0.20230808648901227,0.9830508474576272,0.288135593220339,59.0
2,-1,3180.0,True,True,71.62542824514655,155.03486902406124,182.2578431824407,,,,2.3188139767451332,0.3590985352078503,56.0,0.23214285714285715,74.11222518167786,115.85080460276505,66.58570376888085,-0.6060307378317529,0.13337427446811947,-0.2284250089217869,,,2.3188139767451332,0.34071320906726815,1.0,0.3548387096774194,62.0
2,-1,3210.0,True,True,73.5632183908046,141.5139202717592,123.44125103423309,,,,2.7009782475856046,0.5904652219270445,55.0,0.2,75.27772980159749,101.88267113864407,65.60012529694977,-0.6239679773905431,0.11545198719909526,-0.2284657344768754,,,2.7009782475856046,0.46373386141103357,0.9491525423728814,0.4915254237288136,59.0
2,-1,3240.0,True,True,77.083162638263,141.80184181885133,138.61927466562335,,,,2.1225071872091563,0.27622355777702484,60.0,0.2833333333333333,77.03563641141162,89.61618656251117,49.6383344431357,-0.6897023798389181,0.12830882279253525,-0.34411786120249094,0.1052290969499626,-0.5827215682350405,2.1225071872091563,0.27622355777702484,0.9333333333333333,0.5166666666666667,60.0
2,-1,3270.0,True,True,77.39807604214384,163.01544721788304,173.53236959545558,,,,2.378342768226114,0.3356683986229224,57.0,0.2982456140350877,82.5969292262048,125.88622114019208,70.98660176455213,-0.8041549996647526,0.22756186759705993,-0.40115973990783527,0.15268831140880304,-0.5982898600777891,2.378342768226114,0.31293378134193034,0.9622641509433962,0.5283018867924528,53.0
2,-1,3300.0,False,True,,,,,,,,,,,75.10805194382277,200.43578877369174,81.4399577521294,-0.6327184913151891,0.15872888233842364,-0.3199817346132292,0.09262700550787649,-0.6312987079319339,3.252389753040698,0.380242991765622,0.8541666666666666,0.5625,48.0
2,-1,3540.0,False,True,,,,,,,,,,,77.77871786346887,171.83381094291167,123.07007112488138,-0.8032292462335144,0.19115024941448197,-0.41516967165634155,0.36375277749995316,-0.681025341263186,2.7591539555596394,0.45298367086792835,0.8695652173913043,0.5217391304347826,46.0
2,-1,3570.0,False,True,,,,,,,,,,,72.65485555519219,135.36779075228765,98.65547433178409,-0.7001247846486452,0.22667728411211718,-0.4031282483962354,0.17422412193660744,-0.5737571240100459,2.8939153886980824,0.465545336296219,0.8958333333333334,0.5833333333333334,48.0
2,-1,3600.0,True,True,71.17101937657961,179.93656862824687,162.53004529932306,,,,3.2095166098290777,0.38499773584720415,33.0,0.30303030303030304,71.33956004003522,142.60746704455187,102.214596537589,-0.6870153227802173,0.22667728411211718,-0.4903689619031326,0.2274188692780184,-0.6019357875537599,3.2095166098290777,0.38499773584720415,1.0,0.6744186046511628,43.0
2,-1,3630.0,True,False,73.08931185944363,211.9584445393447,180.6022909599986,,,,3.093493756759217,0.271722101963646,43.0,0.2558139534883721,,,,,,,,,,,,,
2,-1,3660.0,False,True,,,,,,,,,,,69.69261117464207,179.24483016643967,98.3497787336481,-0.5894142608430263,-0.03372044114182221,-0.4203802344878168,0.20568601940629727,-0.4616518212680791,3.233502091061071,0.1749291915505341,0.9791666666666666,0.7291666666666666,48.0
2,-1,3690.0,True,True,63.71681415929204,152.70844314560523,160.47709551672435,,,,3.118867815237525,0.16360866188265508,52.0,0.36538461538461536,64.74802772204488,89.74476251120845,61.24710344107887,-0.44201146708607597,-0.060488910031483684,-0.33282086511886166,0.2520641921662642,-0.3010225923751654,3.118867815237525,0.1753285041994203,0.9814814814814815,0.8888888888888888,54.0
2,-1,3720.0,True,True,66.90335305719921,160.6162666059127,162.91584840252432,,,,2.571810667035312,0.31009500372966686,58.0,0.3793103448275862,69.7056418464691,129.8342825933147,71.91624478150813,-0.43520481762838814,-0.050909252024593926,-0.35279339525857384,0.22569069774203634,-0.2517361810016103,2.571810667035312,0.2853891479660848,1.0,0.8727272727272727,55.0
2,-1,3750.0,True,True,69.07395069953364,179.9665470287213,171.85132412689367,,,,2.5218410995871676,0.36464076122538536,60.0,0.4166666666666667,69.04615078758933,101.46290941530813,79.21685675249441,-0.5271149231069848,-0.03485798067242616,-0.33461434350997943,0.21318781323351943,-0.33133900657933385,2.5218410995871676,0.36464076122538536,0.9655172413793104,0.7931034482758621,58.0
2,-1,3780.0,True,True,67.56934088875634,176.66123227368547,153.40753338523535,,,,1.6539791201118106,0.22090863111160425,62.0,0.45161290322580644,68.51373755265685,112.63754291382674,84.33005182547858,-0.6171413995356279,0.15141813639385687,-0.31263339045558447,0.20310991177714435,-0.6206347261789996,1.6539791201118106,0.2321081973631992,0.9090909090909091,0.6818181818181818,66.0
2,-1,3900.0,True,True,71.53502235469449,176.6454451188878,111.81489123241049,,,,3.1414470136720127,0.44725622578950125,38.0,0.39473684210526316,76.88990658244369,119.33753603769667,52.039077481771166,-0.6522438303674841,0.18043785301114335,-0.24355197890852082,,,3.1414470136720127,0.38680347423403855,0.9807692307692307,0.34615384615384615,52.0
2,-1,3930.0,True,True,71.43603133159269,139.54448168527716,165.98292240121015,,,,2.4946790616406376,0.23011749666461323,61.0,0.47540983606557374,72.72697816280183,83.43111509132771,61.73536108887492,-0.6171248885789778,0.15003826396172382,-0.21168208141858436,,,2.4946790616406376,0.2508483083982935,0.9852941176470589,0.39705882352941174,68.0
2,-1,3960.0,True,True,70.80120683875295,139.52643288454286,167.0925548161856,0.1456981126041472,0.9122980530453707,1.0038532821245778,2.895414576723258,0.26937879569060563,59.0,0.5254237288135594,70.80818096934313,76.50227359518502,66.74850509793282,-0.6428464966073727,0.15140866107408538,-0.23012067726874752,,,2.895414576723258,0.26937879569060563,0.984375,0.3125,64.0
2,-1,3990.0,True,False,69.71677559912854,165.8459610979417,150.73604136591442,,,,3.272338751906881,0.5605451645593991,42.0,0.42857142857142855,,,,,,,,,,,,,
2,-1,4080.0,True,True,64.96760259179266,189.5616401894476,184.80673574275602,0.15044472881719767,0.9198122164064129,1.0046497052725285,2.123172995245921,0.7781708694411055,52.0,0.5576923076923077,66.03611167062208,96.230833742476,74.79697543582897,-0.665240096074706,0.21218819782117285,-0.26434093554409877,0.1448171385678414,-0.6909771488730637,2.123172995245921,0.6878796668927363,0.9833333333333333,0.6166666666666667,60.0
2,-1,4110.0,True,True,65.64102564102565,135.53073563680712,132.33440532125712,0.1384636421407149,0.9272604315613999,0.9952264194890981,1.2588582371252783,0.19627228578095687,63.0,0.7142857142857143,66.81418733384672,98.68879514962654,82.38246655011864,-0.7007023375802114,0.27077056518185033,-0.35448977316878544,0.1327831294835567,-0.6948994549790788,1.2588582371252783,0.17755075887699295,1.0,0.5238095238095238,63.0
2,-1,4140.0,True,True,64.99445061043286,72.01611384981875,64.54972243679028,0.16670562413307713,0.9022190755728835,1.0904154425204051,1.3823835042368071,0.23891713129901554,62.0,0.8225806451612904,67.392493654563,106.63527397260417,100.74027927333516,-0.7446503999020944,0.28008168884384255,-0.290413871183336,,,1.3823835042368071,0.19820296043648958,0.9838709677419355,0.45161290322580644,62.0
2,-1,4170.0,True,True,67.00816211652125,100.13233709816531,91.96751798546474,0.18076372352716524,0.8841559209500411,1.1269366563084218,1.4830111528817425,0.2520269019958453,64.0,0.765625,68.50937595540412,119.17549567985894,83.8178158373114,-0.7684063814218526,0.2598932600262205,-0.2398816840504593,,,1.4830111528817425,0.2662625965140254,1.0,0.38095238095238093,63.0
2,-1,4200.0,True,True,67.5,109.01839588198408,98.54391825694285,0.17585403811955092,0.88487516879024,1.102584698169401,1.5218291594103381,0.2460628498602737,65.0,0.7230769230769231,69.38591662061197,126.56090809005036,91.77384467771536,-0.7321439745482502,0.25555801874334366,-0.24959484817608335,,,1.5218291594103381,0.2571629223069238,0.9848484848484849,0.3939393939393939,66.0
2,-1,4230.0,True,True,66.1706783369803,80.21244777684954,80.68715304598786,0.17654496145069618,0.8820584447450376,1.1350809625092877,1.5812201517091977,0.2262392276976658,64.0,0.78125,67.99004644595871,103.9631686201622,93.4314508116307,-0.7475804879935253,0.2695956047691084,-0.24493361592230656,,,1.5812201517091977,0.20531339094241807,0.9846153846153847,0.4153846153846154,65.0
2,-1,4260.0,True,True,67.01385041551245,64.2175126339494,67.78905961010656,0.17551399500469994,0.8768117963138664,1.1446865028083244,1.6406926122745147,0.20834500072642756,64.0,0.796875,67.5644279750754,88.28592515676736,83.03533437290253,-0.7444165206018738,0.25930363072341944,-0.24262061866082668,,,1.6406926122745147,0.20834500072642756,0.9850746268656716,0.3283582089552239,67.0
2,-1,4290.0,True,True,66.33397312859886,91.11342549813165,74.36252521431746,0.15903729642739584,0.8808979128675308,1.144055261910022,1.6911219350343172,0.2136638577747027,64.0,0.65625,66.95383056392635,88.97455219000965,73.3596572870564,-0.7275724158408506,0.22309664459708786,-0.21957114734268873,,,1.6911219350343172,0.19261371675999306,1.0,0.36363636363636365,66.0
2,-1,4320.0,True,True,67.18425369054128,93.6763413511835,72.53433992771976,0.16218157276689094,0.8785062501606761,1.1234234214378798,1.6653395347580968,0.2008450200190804,65.0,0.5538461538461539,67.93258183916211,87.80347977954366,79.39033279799364,-0.7555308276117046,0.23857547208009233,-0.25175956393106996,,,1.6653395347580968,0.2008450200190804,1.0,0.265625,64.0
2,-1,4350.0,True,True,70.97379310344827,81.51428137734207,55.80082410819617,0.19069998601423166,0.8551057218967059,1.152364790335586,1.5567420321219394,0.19943885469724737,68.0,0.5,71.4239437582932,93.22113623579762,67.99315657770336,-0.7533101166583117,0.25654161727267855,-0.2577014414943034,,,1.5567420321219394,0.19943885469724737,1.0,0.30985915492957744,71.0
2,-1,4380.0,True,True,73.86616093199675,54.92569032333567,52.49096435850378,,,,1.5593454167161003,0.20995903482171474,72.0,0.4444444444444444,74.51976500315196,64.21653911595222,61.30472622523296,-0.7520005334118879,0.24375531783271034,-0.2581253727324869,,,1.5593454167161003,0.20995903482171474,1.0,0.3194444444444444,72.0
2,-1,4410.0,True,True,72.05874354093011,56.15171210644499,68.63292170071496,,,,1.6700143430376377,0.19880401900966937,70.0,0.4142857142857143,73.76336458399798,86.9394387541025,57.418641042180425,-0.7670138154747269,0.2344817346540509,-0.2565386337113301,,,1.6700143430376377,0.19088995705844336,0.9861111111111112,0.2916666666666667,72.0
2,-1,4440.0,True,True,69.64807796426638,62.315988729855405,70.37823106044205,,,,1.7494194491113486,0.22196639364335488,68.0,0.47058823529411764,70.2540326361694,68.36887240054322,67.87310423207698,-0.7857840160251299,0.221994935773185,-0.21540209100847751,,,1.7494194491113486,0.22196639364335488,1.0,0.36764705882352944,68.0
2,-1,4470.0,True,True,66.8251273344652,84.29521408347006,89.00765855391322,,,,2.968071256047149,0.5920050681139964,49.0,0.4489795918367347,70.57768050055422,152.08781045660874,76.26327919930964,-0.7905523706177251,0.19829087013914842,-0.1870790910639089,,,2.968071256047149,0.5645256500700391,1.0,0.42105263157894735,57.0
2,-1,4500.0,False,True,,,,,,,,,,,74.23168640323905,220.5815998720684,111.50563745788982,-0.709920177220425,0.15370704489566656,-0.28985855306228925,,,3.1350945910129373,0.5117161222136516,0.8823529411764706,0.37254901960784315,51.0
2,-1,4530.0,False,True,,,,,,,,,,,73.52152163728981,188.59927176618947,136.93281713751236,-0.7014205625110536,0.11638576009216556,-0.3390586110841679,,,2.7446665023894035,0.46101953995557476,0.875,0.4166666666666667,48.0
2,-1,4590.0,True,True,76.8,181.83403441443124,154.2053723934416,,,,3.1415892473344527,0.4399362012410042,46.0,0.2608695652173913,79.6255151313681,207.35301177003814,127.0520573370022,-0.6822368459118598,0.1486402464533439,-0.4034857433219778,,,3.1415892473344527,0.3521982092576614,0.94,0.36,50.0
2,-1,4620.0,True,True,67.7149155033064,162.09026485775695,170.607701605825,,,,2.423098541000391,0.2737261820140558,57.0,0.40350877192982454,70.0446981790595,146.76242400380772,97.30690400241406,-0.5712913149895598,0.14195713558482076,-0.24235940317824148,,,2.423098541000391,0.2518829743306462,0.9661016949152542,0.3898305084745763,59.0
2,-1,4650.0,True,True,66.33120540743522,160.80945758897514,184.21603316486866,,,,2.825109284789607,0.5002420329908369,55.0,0.34545454545454546,68.24355512654924,91.09534063415379,62.78073860879148,-0.5953829920528569,0.15105056102184344,-0.2169389640865403,,,2.825109284789607,0.4904894834385896,1.0,0.3898305084745763,59.0
2,-1,4680.0,False,True,,,,,,,,,,,69.86097561519128,119.60258650761799,80.98929419382323,-0.6439017904391517,0.15160725681429105,-0.23641851605203112,,,3.074210056578403,0.42412434750900485,1.0,0.4117647058823529,51.0
2,-1,4740.0,True,False,75.16778523489931,234.07982112425458,138.5980817581739,,,,2.6508739955621987,0.23935305837252555,51.0,0.17647058823529413,,,,,,,,,,,,,
2,-1,4770.0,True,True,65.76321667907669,166.51940958373572,151.24806300412578,,,,2.050199356891775,0.289803622982418,54.0,0.18518518518518517,65.26373242973823,94.87185367524816,77.62976177656701,-0.562245157279974,0.0658007371931682,-0.22674786829637852,0.05255572024171385,-0.4422726196458906,2.050199356891775,0.3199157100336719,0.9607843137254902,0.6666666666666666,51.0
2,-1,4800.0,True,True,65.26482213438734,152.4054641695006,152.92215062503442,,,,1.9305401873857337,0.27185952873790314,52.0,0.25,67.98917184931508,117.11074791497792,59.431024652841124,-0.5632645453720136,0.07856000666737518,-0.20496995631621967,0.05291516141480017,-0.4776211289184062,1.9305401873857337,0.21648005948207072,0.9636363636363636,0.6,55.0
2,-1,4890.0,False,True,,,,,,,,,,,73.67229891453097,220.97985827505872,82.19956060124453,-0.9018706025779312,0.15536107084751233,-0.32441309120919626,0.12715917554647188,-0.6401905714603147,1.9695657947205656,0.3333099927579213,0.9444444444444444,0.5555555555555556,54.0
2,-1,4920.0,True,True,67.7846425419241,142.660219055494,103.27836036570095,,,,1.8965382588010171,0.472346570566382,49.0,0.1836734693877551,68.68797434309386,160.69090195118935,77.03522788199976,-0.7385257780864231,0.13921694671804843,-0.1992286594899705,0.011568288156178162,-0.5818612978331543,1.8965382588010171,0.5262313291123423,1.0,0.5555555555555556,54.0
2,-1,4950.0,True,True,68.68937048503612,141.0586863562794,118.47044818444495,,,,1.596937809029158,0.20831127221041268,57.0,0.10526315789473684,70.1574352543629,153.1668913564309,78.362972282046,-0.644844643282918,0.13902391829395266,-0.15435129863281227,-0.00371664702692907,-0.6429513415228907,1.596937809029158,0.19501349598934772,1.0,0.5806451612903226,62.0
2,-1,4980.0,True,True,67.88624135280553,119.52652604649715,140.60274040350123,,,,2.687259320489254,0.6019639833832279,55.0,0.16363636363636364,68.52440010013532,88.40794979967482,65.98445200717865,-0.6243889116711823,0.1443869967177201,-0.22173082045058198,-0.0031437915534149913,-0.7896964475492511,2.687259320489254,0.677018439050822,1.0,0.5517241379310345,58.0
2,-1,5010.0,True,True,68.6284289276808,167.869779409956,98.75614154786047,,,,2.8272480782010785,0.6654115660989222,51.0,0.13725490196078433,70.25268417767064,169.99182668332057,66.15661166014787,-0.5150043898166168,0.12216905703950567,-0.23638560652527812,,,2.8272480782010785,0.5906360046655499,1.0,0.43103448275862066,58.0
2,-1,5040.0,True,True,68.5986502580389,189.86695193774852,109.31297844695497,,,,2.7526649195045176,0.5033530956877177,54.0,0.16666666666666666,71.7777738685669,197.29831706683322,114.44880716113592,-0.5478308384547701,0.11908483444542883,-0.25376106943506815,,,2.7526649195045176,0.3941043619030676,0.9838709677419355,0.4838709677419355,62.0
2,-1,5070.0,True,True,65.25679758308158,164.04408566692672,159.87017132563378,,,,2.58571460246092,0.4027436769927408,53.0,0.33962264150943394,66.23953920300312,169.69672046121934,112.34325630808058,-0.6202141450922573,0.10875120239249876,-0.27264185506245536,0.11858884906768197,-0.44761211032348475,2.58571460246092,0.3552528592059158,0.9454545454545454,0.6909090909090909,55.0
2,-1,5100.0,True,True,66.32519356759977,208.14306531161512,157.76404610500154,,,,3.097033903652609,0.4577337535691867,43.0,0.23255813953488372,68.42068593120122,183.5393799736767,87.32101059406449,-0.7444508079714419,0.11977418645905541,-0.2819938904375666,0.17576141774255613,-0.42060745996756793,3.097033903652609,0.44019764452337345,0.9038461538461539,0.6346153846153846,52.0
2,-1,5280.0,True,False,72.45283018867924,203.44290733303447,166.92909618580308,,,,2.189406456520632,0.22903047754652736,49.0,0.1836734693877551,,,,,,,,,,,,,
2,-1,5310.0,True,True,64.57657657657658,193.45679272289283,168.2057839786994,,,,3.026434010376934,0.41132775503639835,40.0,0.275,69.76088257889649,201.39372664587083,69.71913578259132,-0.535317496658193,0.1307412617192739,-0.3803026127575345,0.17100224993033036,-0.24180789221986076,3.026434010376934,0.31744191081894063,0.8958333333333334,0.5416666666666666,48.0
2,-1,5340.0,False,True,,,,,,,,,,,61.853538157010995,97.904437609738,77.4024479604943,-0.706368542006421,0.06272801161774248,-0.3313273852823312,0.13679610533705078,-0.7189188091486282,2.9940502701360416,0.44341878906479226,0.94,0.8,50.0
2,-1,5370.0,True,True,63.220283174185056,185.57177095330232,170.03889392262164,,,,2.414147092220534,0.28274770849521,54.0,0.2777777777777778,65.9096869766802,146.76209953049997,96.83401785767713,-0.8655208357523997,0.15660900196104297,-0.2786317808459977,0.141032318702212,-0.9427627835422856,2.414147092220534,0.24701431830640208,0.9166666666666666,0.7333333333333333,60.0
2,-1,5520.0,False,True,,,,,,,,,,,69.29012825412842,118.76300534969381,78.23688160167552,-0.6249833253758521,0.1999333481800347,-0.1768620989396854,,,2.894256404790661,0.6936839492564087,1.0,0.4528301886792453,53.0
2,-1,5550.0,True,True,66.04422604422605,136.8747566965411,104.34469436070083,0.16486989696004414,0.9065708403322921,1.2666540953765792,1.6379476532851824,0.2583209625751018,64.0,0.71875,67.92753265552139,110.50223900182866,63.93115508889742,-0.6627998926073196,0.18668617620793904,-0.16950722693913817,,,1.6379476532851824,0.2351457355139085,1.0,0.4406779661016949,59.0
2,-1,5580.0,True,True,67.42386831275721,102.98547889237693,71.6893789559147,0.1723201591793008,0.8938327161683242,1.2716117335181163,1.607769764131751,0.23654321567279554,65.0,0.7230769230769231,68.22807604800104,87.75170081526278,61.44657590347243,-0.6886639054600713,0.17494301599620674,-0.203829628500534,,,1.607769764131751,0.2496869136618659,1.0,0.42857142857142855,63.0
2,-1,5610.0,True,True,68.99494665918024,104.24917677140132,88.89570600457951,0.18899570744460914,0.889616311856568,1.2366059088159194,1.4206911974811245,0.26365083549437596,66.0,0.7424242424242424,69.17462744273463,60.320322111224506,71.92230149254819,-0.6759095351089168,0.17196345433143317,-0.1971625939824608,0.018643578223046808,-0.7973321852091002,1.4206911974811245,0.26365083549437596,1.0,0.5,66.0
2,-1,5640.0,True,True,67.79480346435709,112.63573290606281,94.20312008793724,0.18850029026430393,0.8869449344566658,1.1444779555312992,1.7488794026922805,0.2719608647719033,59.0,0.5254237288135594,68.04693439981227,86.50041674451866,80.00412257838985,-0.6685742209128204,0.19018020137267289,-0.17505016925671368,,,1.7488794026922805,0.28353795914865404,1.0,0.42857142857142855,63.0
2,-1,5670.0,True,True,67.55232029117379,72.15701514986097,51.01598956246694,,,,1.8622895782481463,0.1940372885385387,62.0,0.4032258064516129,67.81305437264835,79.4441419340287,56.19311246102036,-0.6603881567037011,0.18557043768018722,-0.20595060319833847,,,1.8622895782481463,0.1940372885385387,1.0,0.3225806451612903,62.0
2,-1,5700.0,True,True,66.20689655172414,81.28682478153834,63.64808861483615,,,,1.9333623612213553,0.2180291056354774,64.0,0.359375,67.02765865660805,58.9013558101161,55.775050923282414,-0.6916360131154993,0.19525574026713416,-0.21099793002736092,,,1.9333623612213553,0.19718444241829072,1.0,0.296875,64.0
2,-1,5730.0,True,True,64.1961549178044,85.94311743325046,57.10535181011622,,,,1.9932553248190312,0.23332619282857994,61.0,0.26229508196721313,64.71133529289924,68.6757285762896,71.12542415255008,-0.697598016137575,0.18759590737817106,-0.18896539495920614,,,1.9932553248190312,0.23332619282857994,0.9838709677419355,0.3387096774193548,62.0
2,-1,5760.0,True,True,62.62571350910573,57.571263372874405,72.40729571291575,0.1767172162391057,0.8683584150246525,1.281700242073949,1.9092398731302296,0.24641610308506795,61.0,0.5081967213114754,62.929652657670125,73.51070807112173,79.31970800976224,-0.6957938222574307,0.19940622055360085,-0.19641493171797667,,,1.9092398731302296,0.22399327971210115,1.0,0.35,60.0
2,-1,5790.0,True,True,64.28193832599119,70.53080667233023,74.7569451775066,0.1710051409375973,0.8791638432499804,1.199533525001929,1.7939365983261726,0.26377151269908217,59.0,0.576271186440678,66.34132369027198,128.25010429359384,74.62318833654145,-0.6947730176560123,0.1976921545905841,-0.20026910982547602,,,1.7939365983261726,0.24534363952353083,1.0,0.3225806451612903,62.0
2,-1,5820.0,True,True,64.65021770682148,93.4268762283755,70.3370633195266,0.17306355251067634,0.9006675195546381,1.1555298994980236,1.704198804940116,0.2955818669316011,60.0,0.5166666666666667,67.14275342341341,139.8705393954979,73.29612462172237,-0.6889218458205177,0.18546816489599416,-0.20975611153111917,,,1.704198804940116,0.24265554930236335,1.0,0.29508196721311475,61.0
2,-1,5850.0,True,True,63.20353271778402,94.83618739186213,65.14822227340217,0.18639538218212284,0.886553465656032,1.1340497011227755,3.0776615070718183,0.7463667103427579,48.0,0.5833333333333334,64.60357590702645,146.30265245558456,70.7076707466392,-0.6689645244890231,0.19656183412738149,-0.2276512829416364,,,3.0776615070718183,0.8297103818460739,0.9642857142857143,0.39285714285714285,56.0
2,-1,5880.0,True,True,67.26114649681529,194.0727700034659,118.9451521448016,,,,3.115197276618865,0.5281468619686339,43.0,0.37209302325581395,70.9315863891449,209.75189650697016,96.70226500336682,-0.743823107118019,0.2276398431686639,-0.27552975343325825,0.11586230407650874,-1.0378165938554136,3.115197276618865,0.4039782934625311,0.9583333333333334,0.5208333333333334,48.0
2,-1,5910.0,False,True,,,,,,,,,,,71.11645221300826,178.8962025109523,93.30862528413198,-0.7564563327135303,0.2276398431686639,-0.3142366931489237,,,2.8234338033151025,0.19969597890838275,0.9607843137254902,0.47058823529411764,51.0
3,-1,0.0,False,True,,,,,,,,,,,72.44300149125037,187.2231838036899,113.14000134740141,-0.6655213554142301,0.12729717146746172,-0.1719659874828114,0.05323502223998892,-0.6466343273702515,2.0087235452926397,0.9577997645128385,0.9767441860465116,0.6046511627906976,43.0
3,-1,30.0,True,True,63.75478927203065,165.14125655142817,99.15003361908994,,,,2.0476024497169374,0.8405353811372571,39.0,0.2564102564102564,71.62630761948185,184.12236338615818,90.20370651158622,-0.8345840643017405,0.1265859269476897,-0.08055442450272005,0.06148192558297089,-0.9106170469574949,2.0476024497169374,0.657746930199302,0.9807692307692307,0.6923076923076923,52.0
3,-1,60.0,True,True,68.53922029121654,136.57777925809623,115.6437672457006,,,,1.910871108531366,0.2957751605980067,51.0,0.17647058823529413,73.856590279591,171.39712919305188,98.68307925837108,-0.7611750151065946,0.08088184541176213,-0.07691832925520385,0.05997482039764409,-0.7330925766675582,1.910871108531366,0.24720212075707354,1.0,0.7903225806451613,62.0
3,-1,90.0,True,True,75.01658680427572,154.1949168298983,140.53112482264888,,,,1.9663681851020995,0.16067841288357498,64.0,0.109375,76.76862690185587,114.03952915439527,70.10473916882049,-0.6418679301063439,0.053562321785830314,-0.20657188050286873,0.02887434745413247,-0.48268592011693695,1.9663681851020995,0.17493582303043267,0.9841269841269841,0.7142857142857143,63.0
3,-1,120.0,True,True,75.55749890686488,136.75583461691014,140.20349286975267,,,,2.1793664344343173,0.18268234723565788,54.0,0.24074074074074073,75.8123521261591,133.18117959778522,87.18932680639877,-0.6208947060180465,0.06213119218239464,-0.2638054561968242,0.01638548996073165,-0.33928982947581826,2.1793664344343173,0.18268234723565788,0.9636363636363636,0.6,55.0
3,-1,150.0,True,False,69.90897269180753,144.83341296096228,145.0686798554395,,,,2.026656088900702,0.24304159742490558,40.0,0.325,,,,,,,,,,,,,
3,-1,180.0,True,True,67.52028854824165,141.95186732651013,134.33865787627926,,,,2.0403492649565247,0.23511492910559706,48.0,0.14583333333333334,68.95470835800242,142.81340288767555,85.6754996658688,-0.5982993509148862,0.026571147128749573,-0.20543447779386212,0.06851479159532382,-0.4948757203472093,2.0403492649565247,0.2509932124038742,0.9795918367346939,0.8163265306122449,49.0
3,-1,210.0,True,True,66.53465346534652,144.95376760216854,134.41133229754104,,,,2.122287122823085,0.17740931370337198,34.0,0.058823529411764705,68.68067273963904,107.97472270443075,69.66193745699883,-0.613249654732826,0.0030929447528405913,-0.20726527051610594,0.06719506823872715,-0.5280618782334685,2.122287122823085,0.1629170346834565,0.9787234042553191,0.851063829787234,47.0
3,-1,360.0,True,True,55.594622543950365,147.44201886668054,124.94859140230855,,,,1.9015328967465257,0.5905805073181677,50.0,0.04,56.45494670418565,144.56374969445648,109.50785694057028,-0.7229529407438268,0.160566450684002,-0.12509379495081105,0.04591241316930651,-0.8057475489991752,1.9015328967465257,0.516107999582789,1.0,0.9375,48.0
3,-1,390.0,True,True,58.00604229607251,200.13517066837986,141.15603140359573,,,,2.308171040738363,0.7878506172592599,49.0,0.12244897959183673,56.16586703114713,144.0680773504564,121.36117476829067,-0.7003421154282674,0.16574778773578433,-0.12870065031351707,0.047860718058916264,-0.7573806144737354,2.308171040738363,0.7372472261137212,0.9782608695652174,0.8478260869565217,46.0
3,-1,450.0,True,True,52.67738883632923,199.370557863172,168.28640022295323,,,,2.407521815783833,0.8892359447462053,39.0,0.2564102564102564,62.351859606026345,309.1023417432988,105.1116925907778,-0.7285563584931856,0.12325524376327676,-0.12135811908023143,0.05768982892016037,-0.7861824250113931,2.407521815783833,0.6671964909189554,0.9183673469387755,0.6326530612244898,49.0
3,-1,480.0,True,True,53.17874396135266,159.98359739731114,151.58205875272404,,,,1.849687316733802,0.347479968463014,48.0,0.14583333333333334,53.318610078869774,141.39948332246465,106.99756803496659,-0.6722204867963621,0.10490325008797494,-0.10513600759781178,0.05741156652128916,-0.7477253317301984,1.849687316733802,0.347479968463014,0.9795918367346939,0.8979591836734694,49.0
3,-1,510.0,True,True,53.61038961038961,123.6451527103254,129.083684702018,,,,1.615992534217288,0.8364955129380207,48.0,0.125,55.21509542403949,204.02982996179998,119.41902960008787,-0.6249299320169989,0.07689368485365143,-0.1521366442527421,0.1105120418035319,-0.6687263307776834,1.615992534217288,0.7749095173666628,1.0,0.84,50.0
3,-1,540.0,True,True,52.547368421052624,146.32914979060493,129.82133348965516,,,,1.7433571477323206,0.8432869159889776,46.0,0.1956521739130435,56.2302293120316,223.8597591245853,127.15698708503618,-0.6953303153762024,0.11758728022760215,-0.11535407929164908,0.09270990333563481,-0.7706472685793072,1.7433571477323206,0.6957941290287657,1.0,0.8936170212765957,47.0
3,-1,570.0,True,True,53.70629370629371,163.03382484893064,127.23364901749731,,,,1.8598139851085265,0.3998906961137881,46.0,0.30434782608695654,60.284008736882015,230.3206482226264,101.04464050580283,-0.7111123676167639,0.14068625606586443,-0.1104001713684418,0.057104239092757775,-0.8139474878432655,1.8598139851085265,0.280433882389839,0.9782608695652174,0.8043478260869565,46.0
3,-1,600.0,True,True,56.20396600566572,233.79745148288612,129.16246632955463,,,,2.1341360300569723,0.36515874658256153,43.0,0.3488372093023256,70.12704894755497,290.8007663879808,105.27013902463848,-0.7028227165001789,0.10324215739141523,-0.18359851444785297,0.062224294928041525,-0.6526412594804336,2.1341360300569723,0.3139262577506094,0.9814814814814815,0.5740740740740741,54.0
3,-1,630.0,True,True,60.12043356081895,205.3014561581116,173.04562016605288,,,,2.1480235687255065,0.3327059036141694,48.0,0.25,70.14081141057262,255.40182461220567,106.49314159302689,-0.6996904877412934,0.12413266838450347,-0.18131980379354884,0.0674230992225911,-0.7125153912065807,2.1480235687255065,0.31044146283870605,0.9814814814814815,0.6111111111111112,54.0
3,-1,660.0,True,True,58.09379727685326,177.36386459299447,183.90187958742965,,,,2.2900045153825537,0.47696304807574275,41.0,0.21951219512195122,71.58432178208245,225.53064838545208,113.36594814609309,-0.7844556725851145,0.1833934697679636,-0.13762340454207583,0.08237789085812897,-0.8559584585977509,2.2900045153825537,0.25160281467150647,0.9649122807017544,0.7368421052631579,57.0
3,-1,690.0,True,False,52.52564728871519,196.92456412927925,141.69565967325215,,,,2.351161755382082,0.5607275681846391,37.0,0.2702702702702703,,,,,,,,,,,,,
3,-1,720.0,True,True,53.20665083135391,177.88965176137006,150.4637762278043,,,,2.0681373504710816,0.45135845585963913,41.0,0.17073170731707318,55.88940991308404,221.582914516749,91.5065259923476,-0.706028104574625,0.13168433002239907,-0.11533768294734498,0.06962565999791617,-0.8104114575080347,2.0681373504710816,0.399316949430405,1.0,0.7755102040816326,49.0
3,-1,750.0,True,True,55.03184713375797,145.04997941322767,134.7741165802989,,,,2.2827600921200193,1.1705321532443067,42.0,0.11904761904761904,56.52881228345437,187.20300031805266,112.08784560565364,-0.6816148827039592,0.11368500949775537,-0.12057734404493536,0.08678582393759125,-0.7457971991750018,2.2827600921200193,1.0049083254682571,1.0,0.8541666666666666,48.0
3,-1,780.0,True,True,56.07355327203894,203.28074513488136,137.60255014190528,0.31287221600261766,0.7895588999633532,1.7807011472234369,2.8456204353863,1.3787725624016511,36.0,0.5,58.33315055444808,256.3220954143953,117.27409257878993,-0.7728336155103176,0.1661193640682408,-0.12466512224004819,0.12061045278139781,-0.9033588233308806,2.8456204353863,1.3905900687361243,0.9545454545454546,0.7954545454545454,44.0
3,-1,870.0,True,True,52.173913043478265,203.79118210848182,154.2053723934416,,,,2.2724529502452593,0.8287190472104671,39.0,0.1282051282051282,57.25438781388384,257.7333874843412,112.06249575159678,-0.7233638384549128,0.1346262537309642,-0.13002999246302122,0.11960406593578284,-0.8626581234480832,2.2724529502452593,0.6866219964865788,1.0,0.7857142857142857,42.0
3,-1,960.0,True,True,54.02443539429841,126.54146570637934,129.3476455878407,,,,1.7237802658611114,2.8547736627234133,42.0,0.023809523809523808,56.26865587694982,197.62338988359977,106.3723267650354,-0.6784384533120699,0.14619011697713508,-0.18110781998892078,0.08985924796217423,-0.7200450314922261,1.7237802658611114,2.290746442005119,0.9591836734693877,0.7959183673469388,49.0
3,-1,990.0,True,False,55.077452667814114,122.95197233066251,127.85371007739882,,,,0.9908579365680432,0.2695077090290213,53.0,0.09433962264150944,,,,,,,,,,,,,
3,-1,1020.0,True,False,54.28007889546351,151.1093735480575,158.22413606066195,,,,1.1878134547833792,0.3049308264679908,46.0,0.1956521739130435,,,,,,,,,,,,,
3,-1,1050.0,True,True,51.62061239731143,173.28068754649865,144.90028899212038,,,,1.59374889449571,0.5302515272533509,40.0,0.35,61.053926680739046,288.3644947288004,114.83054296029651,-0.7540052107632187,0.138499769871554,-0.1928409025413287,0.08918067763362716,-0.763852137943831,1.59374889449571,0.3846875174887401,0.9782608695652174,0.717391304347826,46.0
3,-1,1080.0,True,True,51.51069945704248,194.1835475890112,160.36254498271512,,,,1.70695591203631,0.44062806971586727,45.0,0.28888888888888886,54.37726730601292,236.66057172248213,103.93389557297758,-0.6975344918064588,0.12113694053563052,-0.0717563190617933,0.06341689038001297,-0.8279511682840871,1.70695591203631,0.36607889728583315,0.9574468085106383,0.7446808510638298,47.0
3,-1,1110.0,True,True,54.17989417989418,191.9278036160509,137.99626353637262,,,,1.9858888262418792,0.9733061607207621,46.0,0.21739130434782608,53.49064588594216,192.6073569242664,103.42917406641696,-0.7025794343235588,0.0861095776567054,-0.06154420277255697,0.05226199696184323,-0.7924793891447837,1.9858888262418792,0.9050843026216581,0.9795918367346939,0.7551020408163265,49.0
3,-1,1140.0,True,True,53.99607586657946,173.96621813219414,113.81302218049191,,,,1.8717546062511334,0.5394038589790288,47.0,0.19148936170212766,54.45072960960152,168.17844075135136,113.11949248033403,-0.7007419400206796,0.08131290993151652,-0.07744378076567587,0.06197564029423755,-0.7856127861145558,1.8717546062511334,0.5394038589790288,0.9803921568627451,0.7843137254901961,51.0
3,-1,1170.0,True,True,53.27491785323111,203.6726498240793,157.27897792560017,,,,2.235437455136779,1.6671197628428165,46.0,0.15217391304347827,54.98244347792523,195.61782432959401,119.05496849689041,-0.6723285775733282,0.09583210157939458,-0.10230897293964494,0.06226556047955508,-0.7591339643771504,2.235437455136779,1.4923951851531916,1.0,0.851063829787234,47.0
3,-1,1200.0,True,True,52.67038148306901,243.04719862705406,169.37096397405313,0.38745036555684353,0.6924896220943002,0.8921007359319533,2.3275770113929375,2.3955833199627627,42.0,0.5,52.03317835043899,164.14342185013686,77.92963977411951,-0.6881547107325672,0.1294434398031181,-0.13858207665462347,0.1413441099759053,-0.8606762212856729,2.3275770113929375,2.79910799720302,1.0,0.85,40.0
3,-1,1230.0,True,False,51.36603161734901,138.10846721208787,152.49391637455577,0.420013332450625,0.6600075779930067,0.684023665162445,1.5981469927966827,1.4569109284252102,42.0,0.5238095238095238,,,,,,,,,,,,,
3,-1,1260.0,True,False,54.5353504167953,149.3466706253339,164.33096421128647,,,,1.0468320546532563,0.5732664312828428,49.0,0.4489795918367347,,,,,,,,,,,,,
3,-1,1290.0,True,False,55.19003513254551,194.97097665875214,160.16117790988787,0.3475419721771145,0.7395644549349017,0.9029643876063681,0.8573847919756342,0.5984178201860978,50.0,0.52,,,,,,,,,,,,,
3,-1,1320.0,True,False,53.33333333333333,202.45968978253944,132.07936018304918,,,,0.8783674915057044,0.684882161807501,46.0,0.34782608695652173,,,,,,,,,,,,,
3,-1,1350.0,True,False,53.00613496932515,129.55803520229765,126.45635981436443,,,,0.771957288145248,0.2719983960955672,48.0,0.3333333333333333,,,,,,,,,,,,,
3,-1,1380.0,True,True,54.06637613141134,140.5397817348262,142.66868149166945,,,,1.5027622977085868,0.5204699368296963,45.0,0.35555555555555557,57.02435804110515,174.54214907199187,94.25280069973691,-0.6366777128866842,0.12577468994887042,-0.18987199606802746,0.09297583315443428,-0.7656691729392837,1.5027622977085868,0.4376444134858916,0.975609756097561,0.8292682926829268,41.0
3,-1,1410.0,True,True,52.892561983471076,85.93203653961749,113.49038535297855,,,,1.5545164550220056,0.4525927794733914,44.0,0.13636363636363635,56.37564566422192,184.74776930399898,79.87334946626005,-0.6751908721354201,0.10973337014184288,-0.1046640971963992,0.10588100469975098,-0.8118783943758394,1.5545164550220056,0.370645748274871,0.9795918367346939,0.7959183673469388,49.0
3,-1,1440.0,True,True,53.1028522039758,85.10423211159666,108.99439858484628,,,,1.1067224017670896,0.21730449369919203,49.0,0.04081632653061224,53.65648164485747,92.78397255435291,98.64118633039377,-0.6998354980834619,0.08720116525478422,-0.09372706168652734,0.10588100469975098,-0.771646184855382,1.1067224017670896,0.21730449369919203,1.0,0.9574468085106383,47.0
3,-1,1470.0,True,True,59.91739329967875,194.5246476098611,127.54214762695624,,,,1.9559416856503686,0.7624776886816668,43.0,0.16279069767441862,59.56272771567029,201.58325266940807,102.0804100025155,-0.7213532738407147,0.0587614716168847,-0.11682315462409724,0.09338245033958054,-0.7289171619892187,1.9559416856503686,0.7624776886816668,1.0,0.8260869565217391,46.0
3,-1,1500.0,True,True,62.1153048527582,196.46442525434364,157.27897792560017,,,,1.7794770669318383,0.5539243522587407,47.0,0.2127659574468085,62.30042477193052,177.1203354203559,112.90839369024494,-0.6829952551112208,0.08309036901726398,-0.30556626066093945,0.12005113786694904,-0.513077486153118,1.7794770669318383,0.5539243522587407,1.0,0.8571428571428571,49.0
3,-1,1530.0,True,True,57.47302471284372,180.2367967330608,146.6032503760859,,,,1.2321114803659792,0.4584292755158263,50.0,0.2,64.26465197804885,225.10001778088218,122.16020449777893,-0.7080568271289764,0.13239013400369615,-0.30427862143726464,0.14160373802801196,-0.5550295793507378,1.2321114803659792,0.43953830120998627,0.9811320754716981,0.7924528301886793,53.0
3,-1,1560.0,True,True,57.59221726793677,234.49227546393135,160.32024970438943,,,,1.6354932895382635,0.3535758562462339,48.0,0.25,67.04585070902667,283.2549655675101,110.40089695621859,-0.7512689765619307,0.18699722961524934,-0.23579205631768327,0.0724961551869748,-0.7940553679629634,1.6354932895382635,0.31111242000274636,0.9433962264150944,0.7358490566037735,53.0
3,-1,1590.0,True,False,56.75750577367205,279.2437791426949,168.7843570349086,,,,1.794237643734944,0.5732302725011311,44.0,0.18181818181818182,,,,,,,,,,,,,
3,-1,1620.0,True,True,54.48140900195695,262.2428018806978,155.93718687343312,,,,1.5594283478498767,1.5622737317465303,41.0,0.2682926829268293,55.63226162832083,300.86231888830974,129.65510300972957,-0.6840724514646351,0.10839010637948536,-0.199355802971951,0.10756364235165948,-0.5499068505323339,1.5594283478498767,1.3505673235661857,0.9393939393939394,0.7878787878787878,33.0
3,-1,1650.0,True,True,55.32550693703308,240.12416891580722,147.4546602798138,,,,1.273162686141709,0.6294374178179685,39.0,0.3076923076923077,65.21111785672088,338.1735995429091,154.31754718953312,-0.735310202146161,0.16684931019310198,-0.23164567468153477,0.13843069640391897,-0.705724117294198,1.273162686141709,0.671913262308144,0.9736842105263158,0.7894736842105263,38.0
3,-1,1680.0,True,False,55.49132947976879,227.2444730933419,165.2891360976418,,,,1.0208707047057346,0.34335079586613726,45.0,0.4666666666666667,,,,,,,,,,,,,
3,-1,1710.0,True,False,56.12667478684531,251.5680456354134,145.26839048271134,0.4174825431639601,0.6734734648822175,1.0357532759988923,0.708381432764595,0.38009323516267507,46.0,0.5869565217391305,,,,,,,,,,,,,
3,-1,1770.0,True,False,55.54716981132075,223.0355545022685,142.92107014596087,,,,2.815966621959497,1.5376812749993556,30.0,0.26666666666666666,,,,,,,,,,,,,
3,-1,1800.0,True,True,62.95081967213115,294.56643830225136,145.51676950899278,,,,1.9098115556339175,0.7489164761494517,44.0,0.22727272727272727,70.76327854913151,290.9223846221142,138.939811754793,-0.754791822593282,0.11239995635304936,-0.18347893739916615,0.02772382133438768,-0.7560147478337532,1.9098115556339175,0.5677518732949158,0.98,0.56,50.0
3,-1,1830.0,False,True,,,,,,,,,,,63.90257210118895,256.29295089406827,135.19547167988708,-0.7355456831649383,0.15235087615699883,-0.18525154116747186,0.07606850289984854,-0.7835875954286557,2.5171539708556256,0.5278519328874062,0.9523809523809523,0.5714285714285714,42.0
3,-1,1890.0,True,False,57.2849328692193,294.7971560859273,194.45122601021316,,,,1.1392399875933295,1.9275388060427838,42.0,0.40476190476190477,,,,,,,,,,,,,
3,-1,1920.0,True,False,54.128070881997594,263.669893297097,190.76111404471024,0.35867435482503,0.7158594570684763,1.021605531640843,1.2153008149314157,2.63472978732401,43.0,0.6511627906976745,,,,,,,,,,,,,
3,-1,2010.0,True,True,66.20689655172414,248.4489646201677,168.3166213599883,,,,2.148007411927508,1.310795904512366,43.0,0.18604651162790697,65.8682591469531,153.0585847980748,89.80191341537093,-0.6142517038610947,0.05039795975197719,-0.1732331564291588,0.07691985520654507,-0.5315586946515595,2.148007411927508,1.310795904512366,0.9459459459459459,0.7837837837837838,37.0
3,-1,2040.0,True,True,57.433443015255754,175.3336492299636,159.23221126285517,,,,1.5737021233192754,0.7602452522170394,53.0,0.11320754716981132,58.62675399837258,135.99162259449653,123.37589410989489,-0.6422255381865587,0.08060252278595673,-0.17123863357142835,0.07754002993434739,-0.6634256182896138,1.5737021233192754,0.675336024891085,1.0,0.9803921568627451,51.0
3,-1,2070.0,True,True,56.973293768545986,192.58620187609813,159.58707792949016,,,,1.1447687810323224,0.23816923862936915,53.0,0.1320754716981132,59.69052250025743,123.86342526521817,138.52307484722712,-0.6203634512483678,0.12743443511023034,-0.21958641057867334,0.06466803900742464,-0.6082187405176099,1.1447687810323224,0.20018236992460917,1.0,0.9473684210526315,38.0
3,-1,2100.0,True,False,56.470588235294116,204.2984932615959,184.877493221863,,,,1.1006363822243403,0.24963374676961272,52.0,0.23076923076923078,,,,,,,,,,,,,
3,-1,2130.0,True,True,55.928500496524336,167.4049804590415,181.24920765546892,,,,1.5051151457245682,0.7580331277756551,50.0,0.24,57.74946405851048,159.25438621546473,130.28924392851513,-0.6108669122611258,0.19833901821212452,-0.24745293462731635,0.0794841090335985,-0.6631389501528767,1.5051151457245682,0.7951721203146377,0.9787234042553191,0.9361702127659575,47.0
3,-1,2160.0,True,False,64.26778242677824,236.07850127359535,149.35979917425908,,,,1.9063643817108955,1.4579186449076327,40.0,0.175,,,,,,,,,,,,,
3,-1,2220.0,True,True,108.3076923076923,71.31433641226762,65.67458444228382,,,,1.6115469787826964,0.17903153394076735,38.0,0.13157894736842105,108.62565173018,113.46543693313082,62.4176986980672,-0.827185832099887,0.16984583164130634,-0.2748041706143469,,,1.6115469787826964,0.17903153394076735,1.0,0.22972972972972974,74.0
3,-1,2250.0,True,True,109.79907264296753,79.28705950527169,57.37324390671413,,,,1.5876238554345783,0.31369449791069676,54.0,0.12962962962962962,113.22900467798016,77.57295585484921,63.38755257665621,-0.7732055706848765,0.1759831964593252,-0.25766723314036666,,,1.5876238554345783,0.2355923024879023,0.9868421052631579,0.21052631578947367,76.0
3,-1,2280.0,True,True,95.6662804171495,169.2364226246873,65.88721794309765,,,,1.5312194195175035,0.3014028576689975,57.0,0.24561403508771928,99.91060538499997,84.68794208914892,59.71059793551938,-0.7532899191174839,0.19301391416985172,-0.2963710026760289,,,1.5312194195175035,0.3134735750573685,0.9538461538461539,0.3230769230769231,65.0
3,-1,2310.0,True,True,86.35406698564594,196.29105578643416,89.79878190497713,,,,1.5940391189103476,0.3025331480949989,57.0,0.24561403508771928,94.67856643574983,68.39016207504832,54.356774527051485,-0.6725194257131402,0.13002874294828237,-0.3115053886966855,,,1.5940391189103476,0.25592577648909454,0.95,0.4166666666666667,60.0
3,-1,2340.0,True,True,83.41110217216412,172.36911615195135,102.08151856691214,,,,1.8631025175939804,0.4593983116366781,62.0,0.14516129032258066,85.14921235676785,128.07001179274593,80.32525987711972,-0.5318396716233783,-0.02997711453900123,-0.29789383919384127,0.07495453246696987,-0.19540656221172487,1.8631025175939804,0.39327613456093724,1.0,0.6428571428571429,56.0
3,-1,2370.0,True,True,86.57824933687003,149.22078785204027,122.9450654985176,,,,1.9319194262451127,0.7103494276337725,47.0,0.1702127659574468,83.12328744389369,158.5659692476616,103.03233666402426,-0.6038737886104502,-0.0055334704067144,-0.3141000926641446,0.10344628749862422,-0.31425666403746627,1.9319194262451127,0.7527601468062862,0.9787234042553191,0.574468085106383,47.0
3,-1,2400.0,True,True,94.11764705882354,146.3695935104411,130.05407529178007,,,,1.7341411977335899,0.5418041791953551,51.0,0.17647058823529413,92.51632198714765,131.60807033798602,95.11087085626129,-0.6282438524740896,0.12352213706569933,-0.30665082686252254,,,1.7341411977335899,0.6283722539616988,0.9818181818181818,0.36363636363636365,55.0
3,-1,2430.0,True,True,86.22293504410585,161.73711051934504,119.05343177773396,,,,1.5761528180422248,0.7807304111279952,48.0,0.14583333333333334,93.53034564129435,145.38927213610273,119.01001841303275,-0.6548501883346577,0.1846626264698439,-0.41862260922833094,,,1.5761528180422248,0.5351820922896355,0.9615384615384616,0.36538461538461536,52.0
3,-1,2460.0,True,False,81.7717206132879,159.6938191835134,130.39814596300144,,,,1.5695411351760542,0.5221075386439282,42.0,0.16666666666666666,,,,,,,,,,,,,
3,-1,2490.0,True,True,76.34756995581738,189.43387787911402,119.17734637801718,,,,1.4171159284816137,0.27934090736407835,41.0,0.14634146341463414,79.16766616681994,162.61681552369356,120.32307795488587,-0.6603869716286845,0.020778168766717287,-0.48086109234136737,0.22019399577993704,-0.25693641776725606,1.4171159284816137,0.29081579831433624,0.9387755102040817,0.6326530612244898,49.0
3,-1,2520.0,True,True,74.95495495495494,187.35972316745298,152.04297231272315,,,,1.1862271766915942,0.5560493562195649,39.0,0.1794871794871795,77.35568785845311,139.52457473967186,109.59208864591575,-0.6460602761323406,0.18002970982486272,-0.479544208661866,0.29225265571707376,-0.4105649710347447,1.1862271766915942,0.6052550988238822,0.9387755102040817,0.7142857142857143,49.0
3,-1,2550.0,True,True,80.2037697401936,161.89773918590123,163.50351200356522,,,,1.0058755691214314,0.5632370824954628,52.0,0.21153846153846154,81.5289465961619,125.91274872642869,93.307748883124,-0.5667406529422886,0.17732781118975824,-0.4441876397246494,0.20689161576699916,-0.4105649710347447,1.0058755691214314,0.6211431896146619,0.9649122807017544,0.7894736842105263,57.0
3,-1,2580.0,True,True,86.24368332397529,159.5401788260743,148.8344473175929,,,,0.8521135703967919,0.17395456547144877,53.0,0.24528301886792453,94.24033223508131,99.72728070049054,86.94306874884309,-0.6387665626539201,0.18132958840174465,-0.4300017451102555,0.17578755973087026,-0.27935952292021204,0.8521135703967919,0.15014311784630338,0.9365079365079365,0.5238095238095238,63.0
3,-1,2610.0,False,True,,,,,,,,,,,96.27527167655794,125.2334957617896,58.29307871020263,-0.8397023104106288,0.24379465693159247,-0.4918894079028937,,,0.7499740970577506,0.08377384529397891,0.8928571428571429,0.39285714285714285,56.0
3,-1,2640.0,False,True,,,,,,,,,,,94.40832648326594,137.35343359211467,101.32493659922585,-0.9316367925607936,0.20855162267112562,-0.4453447616893247,,,0.9087281748157467,0.1043165656771559,0.8983050847457628,0.4576271186440678,59.0
3,-1,2670.0,True,True,81.82218956649523,191.5909292403474,124.54343703436697,,,,1.1135429483345751,0.14154194698558004,41.0,0.4146341463414634,93.24329643001163,98.14003540645493,90.17941613295181,-0.7393088750074015,0.18435950473446217,-0.39235466271676633,,,1.1135429483345751,0.11594348197376826,0.9310344827586207,0.4827586206896552,58.0
3,-1,2700.0,True,True,80.41884816753927,197.64235376052372,133.98684248213826,,,,0.9871949741281957,0.14088652291554027,47.0,0.3617021276595745,92.14626409293983,92.53178104287066,57.98539766875006,-0.7814872186480017,0.2318301672629459,-0.48971297399830194,0.22700956745155781,-0.7172544483698802,0.9871949741281957,0.13682337831483574,0.96,0.52,50.0
3,-1,2790.0,True,False,73.05210918114143,167.61415974327076,167.02435575887327,,,,1.0909969394871624,0.2713479871015852,35.0,0.4857142857142857,,,,,,,,,,,,,
3,-1,2910.0,False,True,,,,,,,,,,,71.10410718366498,229.74416402871628,117.998576745761,-0.791650662221689,0.192726970689247,-0.4125855165435956,0.1657439195742946,-0.653791989390243,2.239529427014121,0.29995314490806113,1.0,0.717391304347826,46.0
3,-1,2940.0,True,True,61.96324518153295,166.72420416801017,183.59968645417516,,,,1.8755890784741873,0.490098240637369,46.0,0.21739130434782608,65.60420309768134,215.87984728512217,156.12197659311101,-0.5695902411601758,0.12428140215537917,-0.3312152525852048,0.10321520105707901,-0.48673983655918096,1.8755890784741873,0.43449066861819097,0.9761904761904762,0.8571428571428571,42.0
3,-1,2970.0,True,True,61.395348837209305,155.53815119536662,167.33514778041194,,,,1.7621216742948889,0.44254267776063255,49.0,0.14285714285714285,60.42161692938255,158.5376348670462,133.20899066010819,-0.5240946718841656,0.11490042551372834,-0.2893052923938887,0.052337243709597664,-0.4020263896908219,1.7621216742948889,0.4106207028720741,0.9473684210526315,0.8947368421052632,38.0
3,-1,3000.0,True,False,61.40572703607289,176.4261100505983,148.64294992531597,,,,1.6871155286016188,0.2867615622404046,51.0,0.09803921568627451,,,,,,,,,,,,,
3,-1,3030.0,True,True,60.9771986970684,246.72732455182046,118.24804197879212,,,,2.0357359972601765,0.9657553488484996,49.0,0.16326530612244897,57.253257870900036,135.49480388496463,123.65623338790233,-0.5946504279763413,0.1976500832469133,-0.29692865418726067,0.09333130200451781,-0.5701533568859962,2.0357359972601765,1.1257692782308202,1.0,1.0,34.0
3,-1,3060.0,True,True,58.68058143868804,217.8566798722018,167.6348048637995,,,,2.063959917408007,1.0760539422732027,48.0,0.14583333333333334,56.96923901124736,173.7938283662047,112.29711201760313,-0.5656794721174632,0.1369211678571654,-0.28273548097216317,0.040834246690096235,-0.48864869467475675,2.063959917408007,1.148130191943893,1.0,0.975,40.0
3,-1,3090.0,True,False,57.53943217665615,241.47970927411177,166.82934768798924,,,,1.6630946759093586,0.8427314903493867,48.0,0.08333333333333333,,,,,,,,,,,,,
3,-1,3210.0,True,False,63.26510234648028,249.43432243492492,172.2061204390444,,,,1.0776278078179886,0.2509635418029176,48.0,0.3333333333333333,,,,,,,,,,,,,
3,-1,3330.0,True,True,67.6737160120846,181.59919997833995,171.12575929246026,,,,0.42316763603113666,0.15448933034391552,47.0,0.3191489361702128,69.3162935639077,123.08181214591112,102.4235842942953,-0.7443412065579637,0.23058898071011266,-0.5380213824103968,0.2951597999281873,-0.6874192706747985,0.42316763603113666,0.16662420343756032,0.9215686274509803,0.7647058823529411,51.0
3,-1,3360.0,False,True,,,,,,,,,,,72.00521196315677,164.7316188491656,80.73885951205673,-0.6809194799227507,0.12319488060290547,-0.3782218360420699,0.20970541413628513,-0.6589538305941994,1.892152475538849,0.2367646521571285,0.9591836734693877,0.7755102040816326,49.0
3,-1,3390.0,True,True,66.72258837627322,188.501150061498,116.86152579415305,,,,2.4186332922513514,1.2121745769690824,42.0,0.2857142857142857,69.43646573163439,148.66351817687396,104.19134684399104,-0.6832021363361005,0.08371780912274784,-0.17492542696494084,0.07326754224656397,-0.6699810487390278,2.4186332922513514,1.182927165845322,1.0,0.74,50.0
3,-1,3420.0,True,True,65.11540273198304,156.31633016702037,124.51076133210334,,,,2.4057570384158375,1.7601739794549183,48.0,0.20833333333333334,68.0888997975727,126.90417970872205,83.60516001159333,-0.662049755904843,0.08371780912274784,-0.2949914479395176,0.11076328733421095,-0.4042329856514507,2.4057570384158375,1.4396419766228337,0.972972972972973,0.7837837837837838,37.0
3,-1,3600.0,True,False,53.640098603122425,242.06505479544012,93.62590993899478,,,,1.58273588516751,0.48878628694693593,41.0,0.4878048780487805,,,,,,,,,,,,,
3,-1,3630.0,True,False,52.1842890288366,185.73306808436266,123.98883006331154,,,,1.5663038241276168,0.34257348976346275,46.0,0.4782608695652174,,,,,,,,,,,,,
3,-1,3660.0,True,True,55.820714718352505,221.20992476397876,141.8078904576633,0.28626275183957783,0.7664144808346133,0.7259450872479691,2.0360337355622318,0.8773957288460393,34.0,0.5588235294117647,54.92717593447238,187.3480343744944,87.10034723252089,-0.7418206158450175,0.20679873929753112,-0.31873189037937577,0.2172385761870465,-0.777538735721365,2.0360337355622318,0.9616111241346114,1.0,0.7804878048780488,41.0
3,-1,3720.0,True,False,56.738786279683374,238.79147413079792,119.62170914433179,,,,2.220443463768402,1.2729803811810507,40.0,0.425,,,,,,,,,,,,,
3,-1,3750.0,True,True,52.71557271557272,210.4603464881839,95.51518031733298,0.2260535075553756,0.8396598807921996,1.1552316199489572,1.7134148751731002,0.5151447151878067,41.0,0.5609756097560976,61.6353863503685,289.76828570022917,100.2093734204198,-0.7953583454863864,0.24702754739409027,-0.28412670183600924,0.16029889625123242,-0.9740456920252489,1.7134148751731002,0.5541317846027546,0.9591836734693877,0.673469387755102,49.0
3,-1,3780.0,True,True,52.06073752711496,215.67217177253843,137.0040353366623,0.2535885509520733,0.8089476944997924,1.0177080710332134,2.0356140339212576,0.4864172859546187,34.0,0.5882352941176471,60.38522165633876,287.45942406166375,95.27432313590987,-0.7708434924610407,0.2188298544916758,-0.2527087487697595,0.1501981594980842,-0.9226095760817568,2.0356140339212576,0.4144883723161586,0.9782608695652174,0.7391304347826086,46.0
3,-1,3810.0,True,True,50.54925102133454,178.71352682163456,153.31443780765653,0.3961044157610173,0.6728292929905724,0.8085833970191952,1.8869581549354617,0.5242346422677193,38.0,0.5263157894736842,52.28829827728568,202.88284516356703,122.72634450531602,-0.7663269463871527,0.28982044366942017,-0.3369070010488933,0.16454705996108085,-0.8868519377842107,1.8869581549354617,0.5153776160942755,1.0,0.9210526315789473,38.0
3,-1,3840.0,True,False,52.92496171516079,261.62813448474583,133.77409245627496,,,,0.9951299759723221,0.37604605424711346,45.0,0.4666666666666667,,,,,,,,,,,,,
3,-1,3870.0,True,False,51.891891891891895,195.965967639723,154.9752689443545,,,,1.0219964682870148,0.49892518046712,44.0,0.45454545454545453,,,,,,,,,,,,,
3,-1,3900.0,True,False,53.17365269461079,205.78306042291118,171.5742561125559,0.30474340030684105,0.766540156483049,0.8011706891803926,1.1848150146605483,1.001228781855717,43.0,0.5116279069767442,,,,,,,,,,,,,
3,-1,3930.0,True,False,58.22485207100591,247.19992510630132,144.05538214520135,0.3111361134219747,0.7577875508252562,0.7339314123865808,1.1125373147990454,0.7023594940844771,47.0,0.5319148936170213,,,,,,,,,,,,,
3,-1,3960.0,True,False,56.31530705774519,263.8381998557544,159.6844762162072,0.3219656718148839,0.7636891891393139,0.7205603780887553,1.092776799792774,0.6743776141032017,42.0,0.5952380952380952,,,,,,,,,,,,,
3,-1,3990.0,True,False,49.72483004208482,152.21091554319221,168.67282185738557,0.3307786954366962,0.7387870700404112,0.7637104510981388,0.5522203444049092,0.26805932638177654,43.0,0.6511627906976745,,,,,,,,,,,,,
3,-1,4020.0,True,True,50.9064851307775,150.7963408422479,157.91142554915243,0.2995225967025403,0.7490037657745136,0.7907387527987736,1.3063531095371093,2.096427156222373,41.0,0.5853658536585366,53.718766186911644,232.85518216886635,132.7100917021926,-0.7209662777513108,0.22039964168719503,-0.30838617661037593,0.17081685062235316,-0.7961180977784966,1.3063531095371093,1.2887504146955284,0.9545454545454546,0.7727272727272727,44.0
3,-1,4050.0,True,False,54.550150667240636,187.2939702168567,180.675499356466,0.2697614223884411,0.7959811291984693,0.5904610321044298,1.3198453321414427,1.3272967083852882,39.0,0.5384615384615384,,,,,,,,,,,,,
3,-1,4080.0,True,True,51.008174386920984,168.9702478821811,144.1348025585554,,,,1.751970044745654,2.604493943132547,44.0,0.4772727272727273,53.32596514009197,193.5606137275945,109.12385446994617,-0.7391348493116426,0.2814808622967287,-0.28316548257407104,0.18241885044869244,-0.9117988089405159,1.751970044745654,1.9565811456318405,1.0,0.9361702127659575,47.0
3,-1,4110.0,True,True,47.83900335409679,105.7486048507715,134.0475661845451,,,,1.9043114575925206,3.123577801427716,35.0,0.42857142857142855,50.56857128096883,200.3170010033694,113.92067188357578,-0.7589007219646202,0.23993778030026006,-0.3111784225234023,0.1370321449809071,-0.8372132141734299,1.9043114575925206,2.2611251234572736,0.9512195121951219,0.8048780487804879,41.0
3,-1,4260.0,True,True,53.95348837209303,265.7913399050738,144.05538214520135,,,,2.0006528943743924,0.8057307526156762,41.0,0.43902439024390244,54.919724416968585,300.77201199973496,131.24886792465713,-0.6764371089194123,0.17815625611976224,-0.2607181289898599,0.08531120944594317,-0.6746416930198199,2.0006528943743924,0.6949877861330211,0.9285714285714286,0.6428571428571429,42.0
3,-1,4290.0,True,False,47.850467289719624,152.5776659001595,127.77371323895927,,,,0.9124921299182523,0.3136503416063809,45.0,0.28888888888888886,,,,,,,,,,,,,
3,-1,4320.0,True,False,49.69003912127596,206.51153549532202,137.80486779442097,,,,0.984189840260062,0.3318866035105307,46.0,0.15217391304347827,,,,,,,,,,,,,
3,-1,4350.0,True,False,52.904707233065444,200.92231786119808,118.31840678238838,,,,0.9987380097956816,0.2560369624809,50.0,0.14,,,,,,,,,,,,,
3,-1,4380.0,True,False,50.54077253218884,132.76609199140077,106.93815418746823,,,,1.0420233017845213,0.26344489229849866,48.0,0.125,,,,,,,,,,,,,
3,-1,4410.0,True,False,51.937665392531606,184.56623127580806,136.66293503543673,,,,1.0450271627923742,0.27997726960232966,48.0,0.10416666666666667,,,,,,,,,,,,,
3,-1,4440.0,True,False,53.59605911330049,199.04124517147636,134.98803082462197,,,,1.0349340524845598,0.2703467183922992,52.0,0.11538461538461539,,,,,,,,,,,,,
3,-1,4470.0,True,False,54.56673168013374,202.11191555500562,119.44163573823865,,,,1.097714998134238,0.3241294782850851,52.0,0.057692307692307696,,,,,,,,,,,,,
3,-1,4500.0,True,False,52.77947464874771,217.99167349408677,117.21353877379097,,,,1.1472918235908305,0.3107786428638143,48.0,0.0625,,,,,,,,,,,,,
3,-1,4530.0,True,False,52.795600366636116,197.1194820378332,113.21388082960499,,,,1.1385948319214982,0.2915544745451777,48.0,0.08333333333333333,,,,,,,,,,,,,
3,-1,4560.0,True,False,53.55648535564853,170.03156829118888,98.47146153283724,,,,1.1428228773176243,0.27748564789631613,51.0,0.058823529411764705,,,,,,,,,,,,,
3,-1,4590.0,True,False,56.5025466893039,170.26489425229028,109.16107498807985,,,,1.1004301857930627,0.2516012884398763,53.0,0.05660377358490566,,,,,,,,,,,,,
3,-1,4620.0,True,False,56.86310063463283,184.77022327392132,135.33744701284078,,,,0.9993227373792527,0.3247397998945971,52.0,0.21153846153846154,,,,,,,,,,,,,
3,-1,4650.0,True,True,57.56213017751479,238.35051454352148,145.708079223362,,,,1.248444128350573,0.9661504365074683,46.0,0.2608695652173913,59.1639286116521,251.6238162166996,90.80175455727709,-0.7384651272784977,0.24203163914925405,-0.20743709288564988,0.1278131907868965,-0.881678261699191,1.248444128350573,0.8212645282334013,1.0,0.84,50.0
3,-1,4860.0,True,False,53.398773006134974,197.28146349403102,132.6929609097634,0.30220859821382656,0.7731859840636028,0.5527380392816559,1.3753756088678355,0.4857829033063031,43.0,0.6744186046511628,,,,,,,,,,,,,
3,-1,4890.0,True,False,52.463640370207145,192.99328685257754,142.96173626433853,0.3089683486498012,0.7593695460175751,0.7961815699288687,1.975301659415037,1.678319868923755,38.0,0.631578947368421,,,,,,,,,,,,,
3,-1,5070.0,True,False,57.14834373499761,247.09969188263798,157.76178365480163,0.29476262500014216,0.7832658782277646,0.5767638196384717,1.2015424101424192,0.3432681257037865,41.0,0.7073170731707317,,,,,,,,,,,,,
3,-1,5220.0,True,False,52.29050279329609,156.570184762011,135.8102737039742,0.28697598341233815,0.801022835285193,0.6104484931355773,1.6170136030167994,0.728265706455399,45.0,0.9333333333333333,,,,,,,,,,,,,
3,-1,5250.0,True,False,52.92496171516079,172.1971187861573,131.49863559669774,0.31636787596516636,0.76281528537974,0.4961305480520881,1.5335193133668117,1.070008197179536,43.0,0.8372093023255814,,,,,,,,,,,,,
3,-1,5280.0,True,False,53.148788927335644,214.1288968724363,167.2556325347022,0.30038632790485087,0.7978428890507806,0.4940356830558016,1.0821477572245963,0.6852275666496672,45.0,0.7333333333333333,,,,,,,,,,,,,
3,-1,5310.0,True,False,54.57725947521865,173.86287553618183,155.36206033541993,0.24763124591223554,0.836705285207673,0.5186185969515598,1.3130735522303751,0.4857951883122158,44.0,0.6590909090909091,,,,,,,,,,,,,
3,-1,5340.0,True,False,55.68321249302844,248.80498643322738,182.51009978474477,0.23988588868723476,0.8314690680033748,0.5859735678329794,2.0561590908487664,1.3162968445435967,37.0,0.5945945945945946,,,,,,,,,,,,,
3,-1,5400.0,True,True,63.47107438016529,184.66461481636858,148.6686112030083,,,,1.144784156488143,0.32853071743948703,54.0,0.3148148148148148,66.80436127134396,193.01991353473986,112.21669781088582,-0.5861311399743993,0.24680089157463714,-0.2968388387630078,0.1688411874856382,-0.7047827387568629,1.144784156488143,0.29210731618708324,0.9545454545454546,0.8409090909090909,44.0
3,-1,5640.0,True,False,58.125,306.8217315197796,166.31204613970831,0.3127454670849472,0.7679636443152882,0.9112986860791886,1.8614405409735095,1.1295658643003326,40.0,0.7,,,,,,,,,,,,,
3,-1,5670.0,True,False,51.62832387212429,191.80917380052603,168.71255031073693,0.22993957379871774,0.8288580175364445,0.8322418764449528,1.7205448900990743,0.4743524664197735,48.0,0.6875,,,,,,,,,,,,,
3,-1,5700.0,True,False,52.10476491006627,169.4407875182543,165.69658156660063,,,,1.8257559453911427,0.31790897675990804,47.0,0.44680851063829785,,,,,,,,,,,,,
3,-1,5730.0,True,False,56.07355327203894,213.42111460654561,153.1993866937245,,,,2.280721166154606,0.8061332584429108,38.0,0.4473684210526316,,,,,,,,,,,,,
3,-1,5820.0,True,False,48.70099923136049,225.41875948623797,140.9552999265404,0.18511271323220285,0.8882773361318896,1.2513703738434312,1.9489760539695762,1.1889467083565923,40.0,0.75,,,,,,,,,,,,,
3,-1,5850.0,True,True,50.67047075606277,178.4998163866705,112.4927659711207,0.1747405763349119,0.8746077498191991,1.3377888048918163,2.0683632277124855,0.7283865970154128,43.0,0.5813953488372093,82.81329015593592,182.3638930030988,132.8702817809037,-0.8793393320285099,0.2450547511653955,-0.17843088501545482,0.05866898120868731,-1.018824406992114,2.0683632277124855,0.6488273264027801,1.0,0.75,72.0
3,-1,5880.0,True,True,50.13957676722197,169.29461355633023,91.59453946109949,0.22281486061990324,0.832301638232906,1.5244241955021172,1.9311871881470535,0.7490109715326433,34.0,0.5,74.7837067265662,278.8607781743178,131.97412647893972,-0.8650976101062597,0.24081704105058988,-0.12601323569630613,0.06943302342014612,-1.004064424370079,1.9311871881470535,0.5903341880671675,0.9836065573770492,0.7377049180327869,61.0
3,-1,5910.0,True,True,53.68126747437092,266.2634372942946,173.7418902269768,0.3680320850878545,0.7068153371318016,1.03106566970334,0.7495038243865234,1.020120664040496,47.0,0.6595744680851063,54.25054026396333,255.92359804296038,109.6240737915791,-0.8114004539471271,0.19863643644630408,-0.20492712525103457,0.14642458033120867,-0.9593651303496329,0.7495038243865234,1.1791083435038014,0.9555555555555556,0.8888888888888888,45.0
3,-1,5940.0,True,False,50.984455958549226,213.6812019328121,177.29383934234713,0.3256741099039927,0.7606213065717464,0.9307886825471565,0.23291045095802615,0.5702025100375048,46.0,0.8695652173913043,,,,,,,,,,,,,
3,-1,5970.0,True,False,52.4553415061296,229.25267333138865,174.6054424892735,0.2974472664423949,0.7982816894972716,0.8491521925828408,0.19926823962351028,0.5766707800723152,46.0,0.8260869565217391,,,,,,,,,,,,,
3,-1,6000.0,True,False,55.7395056885053,252.61178531744866,178.27153583545083,0.30407057627099815,0.7824532596629066,0.6334430007343537,-0.04256136166110927,0.5671202870720398,43.0,0.7674418604651163,,,,,,,,,,,,,
3,-1,6030.0,True,False,58.18181818181819,246.33544678699818,163.56786066676867,0.30127602180831115,0.7757946938782901,0.6661921137354446,-0.05555152651618137,0.5547789925155604,46.0,0.7608695652173914,,,,,,,,,,,,,
3,-1,6060.0,True,False,55.19003513254551,244.035946624569,160.1721282779352,0.29426491142978106,0.7800263361202339,0.7861953943937389,-0.04252978014165056,0.4488719577118743,49.0,0.7142857142857143,,,,,,,,,,,,,
3,-1,6090.0,True,False,54.14030261348006,247.90110736342467,162.40481988177976,0.31226669349511876,0.7499627428336899,0.8369314960649047,-0.03988429179553527,0.4352391924895571,46.0,0.717391304347826,,,,,,,,,,,,,
3,-1,6120.0,True,False,52.09302325581396,206.9968731368795,156.03952169796844,0.3877811878157831,0.6745161496911932,0.7397928652217157,0.0007616727751392372,0.37646729661561545,43.0,0.8372093023255814,,,,,,,,,,,,,
3,-1,6150.0,True,False,54.20017108639863,240.45249282966873,142.51122146058358,0.3462763392950628,0.7597008045567764,0.6265024655289103,-0.11086207701072566,0.46872932924603944,42.0,0.9047619047619048,,,,,,,,,,,,,
3,-1,6270.0,True,False,51.42857142857142,208.88038807649826,115.10298830467724,0.35869122603158926,0.7503885296537178,0.5869849990586788,1.6604903441467949,0.5732384309354459,39.0,0.6923076923076923,,,,,,,,,,,,,
3,-1,6300.0,True,False,50.802919708029194,180.94557839279045,113.0854475712103,0.3101564594466408,0.7705839663647835,0.6333668006638934,1.8434377523411831,0.6860531967412682,39.0,0.5641025641025641,,,,,,,,,,,,,
3,-1,6330.0,True,True,52.354483481908765,228.015483459162,138.72283782886694,0.3840736608239431,0.7269041443409532,0.665153671152819,2.5105024751483986,0.6644432043164286,33.0,0.6060606060606061,56.067157157503935,250.607450693773,122.00087766032529,-0.777649644891386,0.3377874655000125,-0.2618710535011348,0.2665703304967054,-0.9636155407863604,2.5105024751483986,0.5234444711867121,0.972972972972973,0.7837837837837838,37.0
3,-1,6420.0,True,True,59.00967558338076,230.00435717181523,154.5743483462462,,,,1.769152076564277,1.1380610297373788,45.0,0.35555555555555557,60.52770196702298,243.22515461923592,102.87926438153302,-0.7691601933027821,0.1681762108600127,-0.15283899610389215,0.10656307389567193,-0.9091072795971729,1.769152076564277,1.150910309161452,0.9743589743589743,0.717948717948718,39.0
4,-1,0.0,True,False,73.44889420203228,162.58500292085117,186.22978311230338,,,,2.8110878016045873,0.25188731850114976,44.0,0.25,,,,,,,,,,,,,
4,-1,30.0,True,True,68.38063439065108,188.1754205403546,121.97629651602276,,,,2.7151341338408153,0.2861516440750653,47.0,0.3191489361702128,74.74350219461812,165.8253578709587,66.40440625778835,-0.7266028683952301,0.2099123634666795,-0.2012850515197152,,,2.7151341338408153,0.2209516293968465,0.9803921568627451,0.3333333333333333,51.0
4,-1,60.0,True,True,64.10902896081771,183.78051498785362,161.1145335554621,,,,2.404648441835816,0.31949414216079713,55.0,0.32727272727272727,66.13448732802358,122.21418517902906,88.3117965335888,-0.6034923541405974,0.1506207873125615,-0.1732800670601677,,,2.404648441835816,0.3126011943741335,0.9814814814814815,0.37037037037037035,54.0
4,-1,90.0,True,True,63.2656663724625,183.5018723889531,171.7960677340692,,,,2.4148404623714126,0.19679830543399526,59.0,0.2711864406779661,67.68061523398545,152.270720298368,89.51292243264568,-0.5842047148014967,0.14564488484545146,-0.1842698758677799,,,2.4148404623714126,0.17071128355238388,1.0,0.3275862068965517,58.0
4,-1,120.0,True,True,63.149055283414974,188.47792693869548,182.75239396516807,,,,2.5051697506553507,0.1984711969725806,54.0,0.2777777777777778,66.95537797272249,152.91650775609477,83.37412934935723,-0.6053955116024246,0.14305388624746943,-0.1747188504322854,,,2.5051697506553507,0.1726210958440161,1.0,0.46296296296296297,54.0
4,-1,150.0,True,True,66.31476050830888,181.88879864139042,185.95480725409894,,,,2.519270872538315,0.19465421183774037,58.0,0.29310344827586204,66.9085499080938,116.74457946438949,52.10517548588502,-0.5677402937063074,0.1520900233559694,-0.20366591803397807,,,2.519270872538315,0.1734664693971886,1.0,0.4909090909090909,55.0
4,-1,180.0,True,True,70.582056892779,188.51540108916245,165.33309013008946,,,,2.7536854909106396,0.2573582962817641,52.0,0.3076923076923077,75.11681933889975,201.54990327425685,78.63374809419997,-0.5968796502704318,0.13597694028779458,-0.24697284581460363,,,2.7536854909106396,0.18760154847618052,0.95,0.38333333333333336,60.0
4,-1,210.0,False,True,,,,,,,,,,,80.64610510973232,234.26910917991404,108.15194145900443,-0.6942428894570434,0.22900192241738304,-0.2272070210238886,,,3.0656808434364407,0.16168166061709358,0.9056603773584906,0.33962264150943394,53.0
4,-1,240.0,True,True,68.15177478580172,177.52856078327451,101.92909266031732,,,,3.082224006720794,0.1558825451365006,38.0,0.34210526315789475,73.27922279969881,137.39514340099964,67.39383376620378,-0.769435472974049,0.23571261538303206,-0.17803874354234756,,,3.082224006720794,0.1581934675294909,0.9375,0.3958333333333333,48.0
4,-1,270.0,True,True,69.81818181818181,189.57188610128875,134.6086189622085,,,,3.012757167696301,0.17895204298399797,50.0,0.3,77.13395106569273,154.24943930824975,79.08016783799891,-0.6554684791380124,0.18455069274301777,-0.1613962504135728,,,3.012757167696301,0.15623406487934782,0.9433962264150944,0.37735849056603776,53.0
4,-1,300.0,True,True,68.09013668267454,144.7115872247851,128.94943226350816,,,,2.671321795755859,0.19761313279651055,54.0,0.48148148148148145,71.94454390720611,146.35158356255076,87.8834033971553,-0.6049659844592004,0.16406417442068874,-0.15019626315267964,,,2.671321795755859,0.1539810626288968,0.95,0.4166666666666667,60.0
4,-1,330.0,True,True,64.18879056047199,173.5629018032164,136.16286676904502,0.12947851462861484,0.9336067480823813,1.1658461322278093,2.484158477788812,0.20783344584098867,55.0,0.5454545454545454,65.58743399453435,129.85296072586925,94.60325872975628,-0.6123705977155863,0.14732099563326193,-0.14456682779482954,0.10958153468761396,-0.910902194483933,2.484158477788812,0.1918152176266127,1.0,0.5,58.0
4,-1,360.0,True,True,64.0435670524166,189.14639537510914,162.45022524943985,,,,2.3715948323662213,0.24636099064931222,55.0,0.43636363636363634,65.22689601338207,164.4066157797468,110.14462059954815,-0.6386993094359159,0.14688041977599253,-0.1507196146879384,,,2.3715948323662213,0.2656377206705267,0.9833333333333333,0.43333333333333335,60.0
4,-1,390.0,True,True,63.661375661375665,186.5665846615014,166.9338446275735,,,,2.3333930817571957,0.2430198683565687,54.0,0.4444444444444444,63.306965158286836,134.1767154146054,93.28081819296719,-0.6386993094359159,0.1476902403872551,-0.14032866674500183,,,2.3333930817571957,0.2430198683565687,0.9661016949152542,0.4576271186440678,59.0
4,-1,420.0,True,True,59.82025164769323,167.60340487135724,181.81848174499217,,,,2.3605122695990453,0.23126743338360692,55.0,0.4727272727272727,61.89669243090743,107.0707197525819,86.42548541328703,-0.6345898909160719,0.14397509195148925,-0.10378922589085682,0.12108936579564539,-0.9587381361093809,2.3605122695990453,0.22550392500445768,0.9824561403508771,0.5263157894736842,57.0
4,-1,450.0,True,True,59.11060433295325,189.64872769219687,177.16469485075888,,,,2.3435628138149154,0.26138630077033903,56.0,0.42857142857142855,60.527890470497724,108.03991705993576,91.64417500126754,-0.6534285754162382,0.14424270612137077,-0.15984841807394748,,,2.3435628138149154,0.2510201569076275,1.0,0.4107142857142857,56.0
4,-1,480.0,True,True,59.45661700262927,203.11191623598475,167.3713471378597,,,,2.289881485182113,0.2419995347355181,56.0,0.3392857142857143,59.680615140027214,118.53597267499279,95.78604248425653,-0.6542724677598065,0.139973880796754,-0.12813003523367303,0.1071852234107236,-0.9613442456057496,2.289881485182113,0.2419995347355181,1.0,0.5,58.0
4,-1,510.0,True,True,59.64830011723329,178.60581653975427,160.2144626590836,0.1798098156326632,0.9069858953479304,1.1739714941207562,2.2639941345040593,0.2547909067708892,56.0,0.5,61.39938119363331,147.21032273319707,98.47008857661925,-0.6559453642654434,0.14951406200502,0.0032906714308078826,0.11869862818130886,-0.9912857283373935,2.2639941345040593,0.26466533267807507,0.9672131147540983,0.5081967213114754,61.0
4,-1,540.0,True,True,58.89236012496449,180.98395685076684,170.23363999956058,0.18225065950739808,0.9008998296246329,1.2409295566466767,2.1937851492852465,0.3148213225403,56.0,0.625,63.03375037552779,168.64569670150598,98.14928846422568,-0.6705970567350636,0.16962094333744177,-0.19117271714036094,,,2.1937851492852465,0.25656371454603216,0.9836065573770492,0.36065573770491804,61.0
4,-1,570.0,True,True,58.49365303244005,196.92219708414336,157.95510608459116,0.15597792216365328,0.9163367217110613,1.339750498065127,2.192717131788047,0.3043367798389427,56.0,0.5714285714285714,59.99748668744645,112.2866823861089,84.66694714319846,-0.6646970561794578,0.17114581914462884,-0.1725154929295291,,,2.192717131788047,0.28066386092444917,0.9655172413793104,0.41379310344827586,58.0
4,-1,600.0,True,True,59.37051352843732,189.24629831125623,144.4441962994519,0.1439388176674298,0.9279816425391424,1.3048032595674133,2.2521712717766813,0.28281894323949547,57.0,0.5964912280701754,59.76002609850391,100.75754120672532,82.9208336170225,-0.6537836559537352,0.14441383229094096,-0.1036973180443915,0.13491657104699767,-1.030717121472094,2.2521712717766813,0.28281894323949547,0.9827586206896551,0.5172413793103449,58.0
4,-1,630.0,True,True,62.80667320902845,192.76747460757386,162.4480904851538,0.1713450095105862,0.9037781325000284,1.3078935252864965,2.4643714930684224,0.2365447744184778,55.0,0.5636363636363636,64.76127980603952,125.18370402901527,77.33289345439347,-0.6566224582052396,0.15974099835574163,-0.13120933996852702,,,2.4643714930684224,0.247983921021448,0.9830508474576272,0.4576271186440678,59.0
4,-1,660.0,True,True,64.48017148981779,160.6978518149421,154.908556207494,0.2108909416182831,0.8657860894370307,1.2778491388270787,2.4589326048510176,0.25637614289345056,54.0,0.5185185185185185,67.38929030418429,121.2808249439405,70.2227706812743,-0.6698516998427624,0.17070753020045484,-0.19737214221371913,,,2.4589326048510176,0.20558683249370804,0.9833333333333333,0.31666666666666665,60.0
4,-1,690.0,True,True,60.625881026219346,186.2476353980246,164.46685115450006,0.19022811496647565,0.8903435648780239,1.2543734486077642,2.2738517189787393,0.3424955770713879,58.0,0.5689655172413793,64.1997426495192,131.64029784163193,87.2396095152681,-0.6585221832972963,0.17215905814197474,-0.1955283628431501,,,2.2738517189787393,0.30375911491455587,1.0,0.3387096774193548,62.0
4,-1,720.0,True,True,56.68306801736613,193.24134686255658,152.71888908066103,0.16435456772556356,0.9225305260624698,1.2941890368186437,2.3042174937253064,0.34535621903625885,53.0,0.660377358490566,61.71413849545482,203.232225293931,103.46654722554453,-0.6603513304106848,0.1712713411210841,-0.17105343827027739,,,2.3042174937253064,0.30695614825557194,1.0,0.40350877192982454,57.0
4,-1,750.0,True,True,56.37492941840768,174.14812151387093,129.03639263789114,0.15883361422610254,0.9295071661668118,1.323052765258947,2.3182816006485063,0.3231969887985767,54.0,0.6666666666666666,59.82318323603091,193.92776684032364,89.02286179502163,-0.6603513304106848,0.15135854212154876,-0.1710229848398036,,,2.3182816006485063,0.28422217062267263,1.0,0.36363636363636365,55.0
4,-1,780.0,True,True,58.895705521472394,160.96474733387822,138.37170417258363,0.15871626166902505,0.9292067268667917,1.2804613526626496,2.3046940200094923,0.3023720521380455,56.0,0.6785714285714286,60.132203924282194,126.70698316598636,83.2730528537908,-0.6520838653656142,0.16082895661602786,-0.1944432855780203,,,2.3046940200094923,0.2787571907910806,0.9830508474576272,0.3220338983050847,59.0
4,-1,810.0,True,True,59.81308411214953,176.63341537185406,136.142911362249,0.1594786414298799,0.913824518253997,1.2877410847600292,2.264753576601719,0.29846924439572275,57.0,0.6842105263157895,62.0007701212933,142.52756468330546,87.57060451199813,-0.6543456861128757,0.17197156440909225,-0.20346978183466588,,,2.264753576601719,0.2940733145706585,1.0,0.3050847457627119,59.0
4,-1,840.0,True,True,66.85660018993352,163.26175943513292,99.72093301663055,0.22054301561537454,0.848153084247384,1.3274557820029242,2.223972673356361,0.31423336595858353,59.0,0.6949152542372882,69.94510533223169,130.26557495750174,71.88608531848173,-0.666805688479571,0.2049543793966486,-0.20296114859789785,,,2.223972673356361,0.32127394752864125,0.9833333333333333,0.16666666666666666,60.0
4,-1,870.0,True,True,62.563787273286195,167.90169208986566,113.8563644359022,0.20905156274528014,0.871172704978092,1.3283188627844562,2.32659376845146,0.30460476177372364,56.0,0.7678571428571429,64.5191825648844,131.64869803036365,99.99630070667105,-0.6837318049302579,0.20584432028595467,-0.19263403257679157,,,2.32659376845146,0.3090256118540045,0.9824561403508771,0.19298245614035087,57.0
4,-1,900.0,True,True,55.728368017524645,175.102566712442,153.6161946796533,0.15469422306283298,0.9309210180626487,1.3542618636808863,2.371054902095738,0.32236040493250423,54.0,0.6666666666666666,56.57897746041316,123.05696739972743,132.42540317466265,-0.6694427233744173,0.16216347164570727,-0.17702346643571187,,,2.371054902095738,0.2967911966082353,1.0,0.39622641509433965,53.0
4,-1,930.0,True,True,56.593886462882104,176.7612529122181,153.11525620926145,0.14153566826386346,0.9384715557281424,1.300509517864562,2.3584111717780782,0.3188856498184232,55.0,0.6909090909090909,57.02435216447969,104.47175338674441,116.54082547157509,-0.6665021078790656,0.15096976287731828,-0.17596901035763338,,,2.3584111717780782,0.3306848614218226,0.9824561403508771,0.38596491228070173,57.0
4,-1,960.0,True,True,57.999430037047595,171.4471973390562,142.0166479628748,0.1672487706015359,0.9104309386878946,1.3442016539577308,2.3216791526571896,0.359397526370878,55.0,0.7454545454545455,59.46303232695165,123.52853500828805,102.62294416070796,-0.6823159970729,0.17113095612934798,-0.1777733219483735,,,2.3216791526571896,0.30348323216005324,1.0,0.41379310344827586,58.0
4,-1,990.0,True,True,56.873285792649476,195.59803987784002,172.0352991488253,0.16647617627818945,0.9119159638534517,1.311984817011237,2.302688000100051,0.33718762211321385,55.0,0.6909090909090909,59.6906880898543,153.0791048456833,100.2127337613007,-0.6937565466434378,0.17663148879855442,-0.18534893341639652,,,2.302688000100051,0.2962223733624463,1.0,0.3684210526315789,57.0
4,-1,1020.0,True,True,58.617818484596164,173.33848543965007,146.36714058746244,0.15497372973972898,0.9217455990885618,1.277628019633717,2.3100366180005154,0.3284051469095821,56.0,0.7321428571428571,59.75613649575931,113.29107528351014,79.01499833179432,-0.6937565466434378,0.1652269471235998,-0.1803051129494759,,,2.3100366180005154,0.30396447502487506,0.9827586206896551,0.39655172413793105,58.0
4,-1,1050.0,True,True,58.31032578685809,154.45784081634207,115.7920745477048,0.154024697022315,0.928335151477141,1.3163408124530769,2.2917151098749153,0.3248467137990594,56.0,0.875,59.34805888468656,100.18290122391143,98.76541573523487,-0.6995932548771242,0.16368864194194757,-0.16984899300061845,,,2.2917151098749153,0.30054182684983927,0.9655172413793104,0.41379310344827586,58.0
4,-1,1080.0,True,True,55.983338292174956,184.93026291495457,126.26852002500685,0.14298066592759873,0.9460002969485795,1.3495862381821784,2.297879916340275,0.3278057088019698,52.0,0.7307692307692307,58.17476655725526,132.01941892261763,99.9697261780651,-0.6938074112313195,0.15859559129306075,-0.16966629056306698,,,2.297879916340275,0.3174022856402903,0.9818181818181818,0.43636363636363634,55.0
4,-1,1110.0,True,True,56.362476068921495,161.05826427958803,113.71817678132528,0.14299093364409543,0.9435177413992198,1.3930647561351772,2.278041519061018,0.3295692325221018,51.0,0.6470588235294118,58.71967054115994,164.66360205563987,85.76048719007285,-0.6770656087630564,0.16425077718363348,-0.17173968186497443,,,2.278041519061018,0.3238679519712385,1.0,0.4074074074074074,54.0
4,-1,1140.0,True,True,58.738049713193114,146.66849023311258,105.42686180850436,0.1596734323558827,0.9168616401993868,1.358811395644656,2.3061245539260047,0.3815322554265143,53.0,0.7358490566037735,66.08478612163863,228.46819882182456,96.00982259333473,-0.6791781323884983,0.16673251730242175,-0.2030589376708858,,,2.3061245539260047,0.33618828402927126,0.9827586206896551,0.27586206896551724,58.0
4,-1,1170.0,True,True,63.91123439667129,199.67750900376927,122.54850533855681,0.22179346796568897,0.8658006632555367,1.326461169898439,2.325774662951764,0.33325032018092654,53.0,0.6792452830188679,67.39882021233305,143.90718886020974,61.94011276736798,-0.6775193671018578,0.20403872473029797,-0.22984522019990977,,,2.325774662951764,0.3046110083611476,0.9827586206896551,0.20689655172413793,58.0
4,-1,1200.0,True,True,67.33031674208145,212.23497071806742,107.41907143470723,0.274039554945888,0.8200611645304992,1.2501599722173677,2.8794758394568127,0.22616949619592897,42.0,0.5476190476190477,72.53397044234202,141.50794068102826,67.42709656578583,-0.6856080886421929,0.21297047760456056,-0.24619719987068941,,,2.8794758394568127,0.25184895808647456,0.9245283018867925,0.22641509433962265,53.0
4,-1,1230.0,True,True,63.656752803510486,195.0697578004111,115.46770456976753,,,,2.6227794270380684,0.29320314471462156,45.0,0.4666666666666667,70.28548777295009,219.4722022269405,110.97841135111236,-0.6695811244652405,0.15583811829396607,-0.20281372841777853,,,2.6227794270380684,0.26703033497554374,0.9122807017543859,0.2807017543859649,57.0
4,-1,1260.0,True,True,58.41664079478422,183.40736078875514,160.31640412577306,0.15281295871650893,0.915514794352062,1.287855451384634,2.2928266857234934,0.29412459270637165,54.0,0.6481481481481481,64.06258308357883,197.00427177018761,100.54407125262877,-0.6428271912501216,0.15010538027757991,-0.17004118219659778,,,2.2928266857234934,0.23027724248790066,0.9830508474576272,0.3728813559322034,59.0
4,-1,1290.0,True,True,57.808753833286865,129.3680301540325,150.94105844666652,0.1344797529450398,0.9324195306762207,1.2667417094555784,2.216285780076952,0.34615526870620533,55.0,0.8181818181818182,60.26445064773331,114.45583692382421,103.85281349705402,-0.6688851029578778,0.15399434681419533,-0.16830541139002772,,,2.216285780076952,0.2877421433051023,0.9821428571428571,0.42857142857142855,56.0
4,-1,1320.0,True,True,57.14939896966227,144.4051586816893,132.31021329668258,0.13914350286244398,0.9341593392277214,1.3088557201706825,2.1865906379983238,0.3574165366005493,54.0,0.7962962962962963,61.46595069090835,140.42737977794854,122.8185901682138,-0.6857892680563467,0.1625000435651731,-0.1703833511659953,,,2.1865906379983238,0.32135953972254827,0.9636363636363636,0.45454545454545453,55.0
4,-1,1350.0,True,True,58.85517672818267,161.1071432282595,108.1868235357925,0.1497277441460213,0.9204317069700532,1.333074740505251,2.201901685043592,0.35307279753615645,54.0,0.7037037037037037,63.05465614714283,164.60607125503574,139.65270577338995,-0.6789464080394251,0.14565873526969605,-0.16128055470377273,,,2.201901685043592,0.28504298457297533,0.9821428571428571,0.4642857142857143,56.0
4,-1,1380.0,True,True,59.53488372093023,155.6814538243348,124.90468927321754,0.14949990067497432,0.9111836917460104,1.3147967172663237,2.249547854079164,0.292585859262218,57.0,0.6842105263157895,62.03789849006953,151.89722080365848,122.72609798305855,-0.6802315520578825,0.145814909273499,-0.16069733579088755,,,2.249547854079164,0.2877164636553394,0.9830508474576272,0.4406779661016949,59.0
4,-1,1410.0,True,True,60.631578947368425,153.27421996435612,118.76174753922842,0.21429280454614996,0.8629312929050934,1.250278808266826,2.739285511611971,0.32364583743233993,50.0,0.7,61.03663785545671,106.47300232005627,83.87563377738745,-0.7019742841703982,0.15392508457834325,-0.16290397655957572,,,2.739285511611971,0.32364583743233993,0.98,0.46,50.0
4,-1,1470.0,False,True,,,,,,,,,,,80.24828115182974,220.81029433107517,117.74436784282186,-0.7025294757003446,0.16592652290242463,-0.19999331384342167,,,2.952248016530429,0.22599621335101863,0.9038461538461539,0.40384615384615385,52.0
4,-1,1500.0,True,True,63.90015600624026,244.43656458728276,170.44862679118302,,,,2.82750634326993,0.26172153829885786,41.0,0.24390243902439024,74.49470457926853,214.75737251469434,105.57083917703737,-0.7085203317488391,0.2372932953914765,-0.2200512698429029,,,2.82750634326993,0.24170750906414143,0.9629629629629629,0.3148148148148148,54.0
4,-1,1530.0,True,True,64.22939068100358,199.43483618862078,159.75241260567344,,,,2.965525454438719,0.38655900406783456,39.0,0.4358974358974359,73.70761129551218,203.40513230648148,97.25530391488596,-0.6904985978371077,0.22574939820921264,-0.18289286602111174,,,2.965525454438719,0.28673824917980406,0.9803921568627451,0.3333333333333333,51.0
4,-1,1560.0,True,True,58.24800910125143,188.8104413490416,156.47305507430252,,,,2.793129189025857,0.4889017922427991,47.0,0.46808510638297873,64.3475536267029,229.82480735950207,123.2744655698428,-0.7045232638523148,0.18573201063017705,-0.16588449529243288,,,2.793129189025857,0.43844628514516554,1.0,0.4,55.0
4,-1,1590.0,True,True,56.75436003547148,162.02989545662143,162.6959850538162,,,,2.3192876310223327,0.25631265277839305,53.0,0.33962264150943394,66.21472219982478,248.0665363562732,123.28257098596944,-0.678783097342026,0.18114702987289258,-0.18867219682598854,,,2.3192876310223327,0.2258227426715719,0.9818181818181818,0.4,55.0
4,-1,1620.0,True,True,58.434782608695656,150.1071123641104,121.72698112042501,,,,2.1977799649429692,0.2122113054763647,52.0,0.25,61.93777171455456,155.78307918473865,101.70989518556534,-0.579247297079957,0.154822810627818,-0.1901909075346504,,,2.1977799649429692,0.189318728409647,0.9574468085106383,0.44680851063829785,47.0
4,-1,1650.0,True,True,61.358189081225035,201.9280747260981,144.92836772293177,,,,2.8559221702771955,0.29223216215258124,53.0,0.20754716981132076,61.91537967208294,122.76343117677685,82.91772906781618,-0.5923096949518407,0.15275222663963273,-0.2016820600612842,,,2.8559221702771955,0.26208226262021517,0.9636363636363636,0.34545454545454546,55.0
4,-1,1680.0,True,True,61.507098653076085,215.43896084343632,165.7281518405971,,,,2.990185675162677,0.3089059921203511,51.0,0.27450980392156865,65.30118172530831,145.29364863284488,93.06044755103684,-0.6987045223883528,0.15112023424035806,-0.1852713604607192,,,2.990185675162677,0.2748070326040858,0.9833333333333333,0.4166666666666667,60.0
4,-1,1710.0,True,True,60.98003629764065,187.7482163053496,143.80094206054423,,,,2.741077601849839,0.3444664918007203,42.0,0.2857142857142857,63.242982968354475,119.20492346777749,82.37917083433906,-0.7369414197413309,0.16161058689259836,-0.181483431083255,0.006911839371030728,-0.8535822018851904,2.741077601849839,0.2817128307210734,0.9787234042553191,0.5957446808510638,47.0
4,-1,1770.0,True,True,67.55277560594214,144.01514715640084,83.56857558710627,0.3066724097874767,0.7646939964555539,1.458673836718873,3.0363303636090784,0.2955655355863332,54.0,0.6481481481481481,68.93823862161821,182.92152482840046,99.1949527469879,-0.7230914526843834,0.19047305253166008,-0.18847758893293995,,,3.0363303636090784,0.3181614454188466,1.0,0.2909090909090909,55.0
4,-1,1800.0,True,True,61.119648737650934,121.53002835469728,100.78772161543971,0.23253336563954158,0.8506451547370097,1.3751994474070763,2.615829581120437,0.4427484351705487,59.0,0.847457627118644,64.3749893240261,160.97966412127965,91.2973486964703,-0.6869377327061006,0.19298593024550728,-0.1838476999394844,,,2.615829581120437,0.4023573119941331,1.0,0.3114754098360656,61.0
4,-1,1830.0,True,True,58.77015578026784,126.84283577250261,110.32419231000138,0.21028331241577666,0.8773623609201073,1.3913609168658079,2.6253932542010223,0.44404696566207413,57.0,0.8947368421052632,62.77161447602853,183.6830885487002,99.73371028248813,-0.685761186315028,0.17982368351465444,-0.1768433072728716,,,2.6253932542010223,0.36987331176313903,1.0,0.3728813559322034,59.0
4,-1,1860.0,True,True,60.07989347536617,153.84803878855323,106.87292553700323,0.22571569279824888,0.865889202980088,1.327096792358495,2.8232110761326017,0.3249179068429208,53.0,0.9056603773584906,64.82959421953832,194.89100976247713,114.62274697408556,-0.6861200840513406,0.1721875346870631,-0.17661214596489896,,,2.8232110761326017,0.30659739116805446,0.9827586206896551,0.3620689655172414,58.0
4,-1,1890.0,True,True,65.7856093979442,153.47188884944634,101.548190383867,0.2827153651702613,0.8124650222513135,1.2758087841193602,3.0857199603031207,0.36684475995718846,47.0,0.723404255319149,70.35298202314429,166.02219175217903,109.94549803121058,-0.7080356812200921,0.2264116906357684,-0.23024701352021776,,,3.0857199603031207,0.3332089961505381,0.9818181818181818,0.21818181818181817,55.0
4,-1,1920.0,True,True,61.47431124348473,147.22242491166736,81.81795907635043,0.23737315985911375,0.8722733240927422,1.2462274448699922,2.9847245747447375,0.5232363788374087,49.0,0.7755102040816326,62.74468735450012,123.19806345463857,78.60034568860243,-0.6554906374128141,0.22900818752059474,-0.20057427945340744,,,2.9847245747447375,0.47306833054261377,0.9814814814814815,0.2777777777777778,54.0
4,-1,1950.0,True,True,60.38100997883278,146.7471679637557,134.84202997164869,0.19356599676042618,0.9218221719938462,1.2093475410830352,2.9005201004775767,0.28363831483560514,56.0,0.8035714285714286,60.4362872096016,66.57157213901212,66.46028561586834,-0.6504908268287197,0.23592551163887868,-0.22407395115051304,,,2.9005201004775767,0.28363831483560514,0.9821428571428571,0.26785714285714285,56.0
4,-1,1980.0,True,True,63.38212394892557,164.51785372699922,162.25733782274864,0.2190412526316794,0.8942650558841787,1.2136108609318597,2.7911702692638163,0.3234393935445669,57.0,0.7017543859649122,63.35418386113984,101.62666784002332,71.9488394448134,-0.662444458074547,0.24968891672878687,-0.24379252682325409,,,2.7911702692638163,0.3234393935445669,1.0,0.22033898305084745,59.0
4,-1,2010.0,True,True,60.9165687426557,126.42768715895814,117.63544705680901,0.251231675099115,0.8662243587780672,1.3209559052910917,2.798642498642584,0.4672347607944606,57.0,0.8245614035087719,62.02588362410735,111.28618654781391,70.8404324398757,-0.6787918470691604,0.24294025828977805,-0.22558756359803958,,,2.798642498642584,0.42631639872562643,1.0,0.26229508196721313,61.0
4,-1,2040.0,True,True,60.31413612565445,71.01173480950004,67.08997943738761,0.22993782481149685,0.8886432183124565,1.2934611823602031,2.7548493307090944,0.41847822913468596,58.0,0.9827586206896551,60.27974858770665,53.425243813572656,59.64015730331818,-0.6728152404530195,0.23498474274617587,-0.22641475473089287,,,2.7548493307090944,0.41847822913468596,1.0,0.23333333333333334,60.0
4,-1,2070.0,True,True,61.98632010943912,86.43438487889048,76.3433203156516,0.22355501137499426,0.890456329078992,1.2307494126950946,2.765006658542694,0.3761293261099691,60.0,0.95,62.62317808022166,86.01971902719362,58.26872425303734,-0.6637805107681383,0.24150042428839222,-0.23137848569073363,,,2.765006658542694,0.3761293261099691,1.0,0.13114754098360656,61.0
4,-1,2100.0,True,True,61.665759390310285,116.12595740046308,72.81987623581902,0.23379439849498856,0.8778300207170872,1.248748261512176,2.7892132610650573,0.43478269108451667,60.0,0.9,63.6981083106945,111.76591590166149,50.25551248215043,-0.6799691908665397,0.2469425930368634,-0.22749482302188875,,,2.7892132610650573,0.367530695427733,1.0,0.1935483870967742,62.0
4,-1,2130.0,True,True,61.51506923703502,102.67352313242924,61.74422855308328,0.23544656902952174,0.8761026232888335,1.2951405085279577,2.7547953620199506,0.43828059059887947,60.0,0.95,62.30934414585029,84.18662977226789,51.637991697640636,-0.6898668890776113,0.24987748568701398,-0.23008664949443602,,,2.7547953620199506,0.4028218817128026,1.0,0.2459016393442623,61.0
4,-1,2160.0,True,True,61.270976616231096,109.3706112463194,65.76303510114391,0.26069640261678656,0.857889053345636,1.300957518794858,2.7564767403415207,0.5072754743329678,59.0,0.9830508474576272,62.169369763974544,116.15389211820208,66.52231948264483,-0.7033808481010368,0.2596860381192457,-0.2326525317203416,,,2.7564767403415207,0.46431727553303415,1.0,0.2,60.0
4,-1,2190.0,True,True,59.18097754293263,162.41387302262723,79.56644371540833,0.2662234204139152,0.8495871686882455,1.298612197081432,2.942534604626446,0.32046277396814926,42.0,0.7619047619047619,64.48603019995753,193.80879782568798,77.70144337822859,-0.7061907124177588,0.23183155054739357,-0.217803467223187,,,2.942534604626446,0.326124259690985,0.9622641509433962,0.2830188679245283,53.0
4,-1,2250.0,True,True,66.09571788413098,194.0208816474245,144.4432446030562,0.21745945152975404,0.8761726681176043,1.2941772698151417,2.955132942971328,0.21059237971890074,50.0,0.56,69.23522944480995,143.23241356804084,83.2958023514366,-0.6212852717506494,0.203725800403196,-0.21321841661068144,,,2.955132942971328,0.21266730221250765,0.9818181818181818,0.4,55.0
4,-1,2280.0,True,True,64.22775800711743,155.464607978633,136.8117243392052,0.201774367751958,0.8872136437768307,1.1524922644313582,3.055558005506669,0.1239101919075758,53.0,0.6792452830188679,65.09328322044664,92.63299629224703,59.84797151937005,-0.6285559697988614,0.20727617344124322,-0.20970594873772908,,,3.055558005506669,0.1239101919075758,0.9824561403508771,0.40350877192982454,57.0
4,-1,2310.0,True,True,63.673469387755105,196.7350773577388,151.2884119612272,0.19257551413488544,0.8875430349461153,1.0661708254135083,3.3125900032886686,0.118973742720387,50.0,0.54,66.02661891253938,122.42983898430667,70.2110964395997,-0.6265342511667984,0.21650410984787105,-0.20928840209813188,,,3.3125900032886686,0.12454447783780116,0.9411764705882353,0.35294117647058826,51.0
4,-1,2340.0,False,True,,,,,,,,,,,67.20489252080414,117.6824605589364,69.52256755401987,-0.642458606658785,0.1814123836260757,-0.21993803512869234,,,3.168880368364255,0.18207755629945288,0.9574468085106383,0.3404255319148936,47.0
4,-1,2430.0,False,True,,,,,,,,,,,68.45191641465031,99.7888024792318,100.65645213672833,-0.6129558138432816,0.16486743180467875,-0.21664869764126252,,,3.1879212296111388,0.26762868661632955,1.0,0.38095238095238093,42.0
4,-1,2460.0,False,True,,,,,,,,,,,68.38646603369511,142.25412350651422,112.80720734173174,-0.6180527691016823,0.16443585310686443,-0.27004180479344975,,,3.09875617738729,0.3219154413773546,0.9761904761904762,0.3333333333333333,42.0
4,-1,2490.0,True,True,64.56795889771135,220.1639922188505,161.22825995839108,,,,2.9744378711618222,0.5152752037866704,45.0,0.4666666666666667,66.0276854365467,174.30876382969015,124.26650500175639,-0.6514500900498564,0.15178141108744192,-0.16613562098393744,,,2.9744378711618222,0.45935848084361497,0.9607843137254902,0.45098039215686275,51.0
4,-1,2520.0,True,True,61.744782757440994,200.08803837490365,139.8746745088814,,,,2.481129185846597,0.30286916439853234,51.0,0.47058823529411764,63.46960003792658,120.37835125117333,102.19387762248607,-0.666269295460886,0.13005675664205024,-0.12602852862227887,0.05646626389662292,-0.7718183616373797,2.481129185846597,0.2742758568002587,1.0,0.6428571428571429,56.0
4,-1,2550.0,True,True,60.22953328232593,199.69399465563404,172.37734354522445,,,,2.734615150043978,0.4689268496320639,48.0,0.3958333333333333,61.97743289833244,127.42843285501851,95.8743616358408,-0.6673627444741312,0.12652948503108405,-0.14438885708366647,0.06705955832496552,-0.7902911248801481,2.734615150043978,0.4464834316833587,0.9811320754716981,0.6037735849056604,53.0
4,-1,2580.0,True,True,61.52202937249667,182.76670671876056,147.9320041130691,,,,2.9436254291892676,0.4169861581956642,45.0,0.4666666666666667,65.9986856650301,168.7478441506009,81.04370771538618,-0.6692038886606556,0.19357284868813884,-0.21165325434293897,,,2.9436254291892676,0.3460610506076026,0.98,0.34,50.0
4,-1,2610.0,True,True,63.019693654266966,188.8392068635393,145.3733911400656,0.2061783346462327,0.885066093777324,1.1817450197391346,3.1509319244732295,0.21921241313840645,39.0,0.5128205128205128,67.90204984091558,180.55832725716095,91.9843933627926,-0.6680844686781462,0.22639328322531638,-0.2516478919612601,,,3.1509319244732295,0.18517811779676008,1.0,0.22448979591836735,49.0
4,-1,2640.0,True,True,63.69181380417336,159.6093838405068,85.97694801676656,,,,3.1842590132095077,0.22180601583227444,42.0,0.47619047619047616,68.08720336455221,186.56082624457724,96.08264458554765,-0.6643714571224972,0.21154477266209992,-0.21451909448282105,,,3.1842590132095077,0.2024956589474396,0.9818181818181818,0.2545454545454545,55.0
4,-1,2670.0,True,True,59.75230231819626,216.5715446447892,130.9893244695918,,,,2.4470444876600386,0.30223804961296324,53.0,0.49056603773584906,59.91865363193018,125.80797340916186,101.87230105348995,-0.6608353532215314,0.20965340007913302,-0.20683817660664847,,,2.4470444876600386,0.30223804961296324,1.0,0.26785714285714285,56.0
4,-1,2700.0,True,True,58.60938383267383,220.21370017895333,173.49078171270574,0.21071244236185205,0.8989612412241754,1.1451697419141844,2.1198076593294335,0.3317359073257444,56.0,0.6071428571428571,63.18146200288967,157.8898092747089,99.25936530794434,-0.6619662440496389,0.21128880387771745,-0.24011950069304835,,,2.1198076593294335,0.28129635820808885,0.9824561403508771,0.24561403508771928,57.0
4,-1,2730.0,True,True,62.31237322515213,153.68816025866528,143.48934702037408,0.22202354459934048,0.897873077235177,1.151882730304402,2.099909686916883,0.3589443393543421,59.0,0.6440677966101694,63.2480732499783,114.9031064535867,99.50352712338605,-0.6692038519584014,0.2513349636872179,-0.2555822034196804,,,2.099909686916883,0.33245796366052766,1.0,0.16666666666666666,60.0
4,-1,2760.0,True,True,62.60292898590771,126.59310006473726,133.30942575373905,0.19823111558382633,0.9348106633657296,1.1341207044469608,2.0749913151323547,0.33369522116113864,61.0,0.7049180327868853,63.400635010477295,82.60156730746276,81.87047799120174,-0.6747885661888015,0.26970396577829053,-0.26626720590800895,,,2.0749913151323547,0.31064737267822645,1.0,0.13114754098360656,61.0
