subject,label,t0,ok_p1,ok_p2,HR,SDNN,RMSSD,DR,RI,AR,log10_Ew,E_ratio,n_beats,notch_rate,p2_HR,p2_SDNN,p2_RMSSD,appg_ba,appg_ca,appg_da,appg_ea,appg_agi,p2_log10_Ew,p2_E_ratio,appg_rate,appg_rate_full,p2_n_beats
2,0,306.546875,False,False,,,,,,,,,,,,,,,,,,,,,,,
2,0,336.546875,True,True,74.9367088607595,157.00362549848865,87.05242673240073,,,,2.9655166651313443,0.31357728858465084,48.0,0.4791666666666667,77.54919174045587,154.66756538713037,70.07925713319105,-0.8335873713083761,0.16404275046761,-0.23724402370438302,0.15575227882223946,-0.8600746463146933,2.9655166651313443,0.3587800709066039,0.9803921568627451,0.5882352941176471,51.0
2,0,366.546875,True,True,72.5230024213075,133.25674145441923,77.67004627724691,0.31616544921828393,0.7575789145693207,1.2454580901251069,2.416896595462741,0.5566849439113583,52.0,0.5192307692307693,71.58842620832439,116.9317794419485,68.62686054969726,-0.8603383574587357,0.24526487167532118,-0.21525306660599497,0.1345537367078478,-1.048963399631854,2.416896595462741,0.5112407539554527,1.0,0.5357142857142857,56.0
2,0,396.546875,True,True,69.67088607594935,71.70085190786368,54.77554003553238,,,,2.3242546007536267,0.5257107394197241,51.0,0.49019607843137253,70.99640384766195,105.833233111149,55.02011452786823,-0.8909957989699635,0.2744723709556964,-0.23345051970302133,,,2.3242546007536267,0.4419593557626998,1.0,0.423728813559322,59.0
2,0,426.546875,True,True,72.98245614035089,107.87358732614456,53.997561122173444,,,,3.0319183249328416,0.5316872479523306,47.0,0.40425531914893614,74.56690939603718,129.2550050381198,58.10597201443955,-0.8920378325063705,0.30382060457340443,-0.2346725055830193,,,3.0319183249328416,0.4641033840317733,0.9661016949152542,0.3050847457627119,59.0
2,0,456.546875,True,True,74.96007098491572,156.0215456498894,126.8739737232713,,,,3.1222042393103786,0.37032507408531135,39.0,0.28205128205128205,77.10664315940947,180.93466940562553,48.35028220519807,-0.8326152128086562,0.20270766214663616,-0.22797261002752683,,,3.1222042393103786,0.43103175920168285,0.9636363636363636,0.45454545454545453,55.0
2,0,486.546875,True,True,69.55471698113207,171.16203471141435,124.9472016871905,,,,2.2888863735642877,0.2481353266931005,56.0,0.42857142857142855,73.27476860174286,84.88284852244402,70.9629800732754,-0.8040817598909323,0.20270766214663616,-0.22441324792245043,0.1929200403030032,-0.9421796906295995,2.2888863735642877,0.2293605503491149,0.9833333333333333,0.5833333333333334,60.0
2,0,516.546875,True,True,72.58979206049149,104.86305006563464,89.70932384145424,0.25853704318668624,0.806554207588456,1.258121296977238,1.7554898621310033,0.3310131274062895,64.0,0.546875,74.83984833224147,113.73156804524336,55.70065821382989,-0.8726576739806594,0.22514271038303196,-0.2329880338935152,,,1.7554898621310033,0.301983595548672,0.9692307692307692,0.4,65.0
2,0,546.546875,True,True,71.2332531776022,89.07716273491883,62.698981719589916,,,,2.324992291445879,0.4475451002342031,61.0,0.4918032786885246,74.32012433625133,100.05074032901989,68.27506901357228,-0.8957217523008641,0.19584235238568276,-0.1381228796981727,0.12601338650125932,-1.1701209576269866,2.324992291445879,0.4313008005809831,1.0,0.5454545454545454,66.0
2,0,576.546875,True,True,71.82364729458918,122.55140400195555,56.56436279282119,,,,2.8757579066291368,0.5041881308272665,43.0,0.37209302325581395,76.67749382851187,170.26458234382275,93.3685079185396,-0.8957217523008641,0.1950331362413144,-0.15031740521050016,0.1778787159735006,-1.0004803640914213,2.8757579066291368,0.4754212970587544,0.9830508474576272,0.559322033898305,59.0
2,0,606.546875,True,True,70.30985915492958,139.8294806321119,112.53797102256198,0.2858613601887245,0.7804458909178864,1.3503951104184353,2.932241425525792,0.7326681982817818,41.0,0.5121951219512195,72.33450622725009,175.66928179136994,70.80178503593518,-0.7188501286100938,0.2036241555191235,-0.15951758029289106,,,2.932241425525792,0.6956286785765814,0.9622641509433962,0.4716981132075472,53.0
2,0,636.546875,True,True,70.57034220532319,108.13367995997912,95.34847584119053,0.2034148124336098,0.8543481314375664,1.3145626208613317,2.8566017372645094,0.48414472259000935,39.0,0.6410256410256411,74.32096280028601,158.61278056210455,50.494767475711285,-0.748480335181646,0.19319677788912837,-0.21252515707347505,0.08651558562686482,-0.7382488520271528,2.8566017372645094,0.394043193315664,0.9830508474576272,0.5084745762711864,59.0
2,0,666.546875,False,True,,,,,,,,,,,75.33069983131507,144.85229917096842,66.05377835937249,-0.7904140005808791,0.19953363578440048,-0.22596525590619235,0.09883886349175071,-0.840571092113822,2.9818335579688697,0.24790536943784006,0.9814814814814815,0.5740740740740741,54.0
2,0,696.546875,True,True,69.63730569948186,122.5719406961006,122.77386950164684,0.2595751053959522,0.8358960634040111,1.259926835580763,2.821926865468277,0.3802152763867927,45.0,0.5777777777777777,71.48886333048542,94.86733691030443,71.82958836500029,-0.8120239214573736,0.24215321057409175,-0.14357196533715622,0.12859381540464263,-1.0422463252306329,2.821926865468277,0.33232698668254784,0.9833333333333333,0.6833333333333333,60.0
2,0,726.546875,True,True,71.15577889447236,76.26923633477658,61.609218098568505,0.22882951356378467,0.8530335038651411,1.2957987006478857,1.4714171186246705,0.2556121305476037,63.0,0.7301587301587301,71.97474439187127,65.73343984023724,64.25822488163628,-0.8524866917713093,0.24662688468961405,-0.1458241884737307,0.12504405067960042,-1.0893067535645653,1.4714171186246705,0.2556121305476037,0.9850746268656716,0.5522388059701493,67.0
2,0,756.546875,True,True,73.72549019607844,82.4115979989246,79.31506389372144,0.23459896754900086,0.8265152120783331,1.2638998077016408,2.8069461148782033,0.32793285790671634,55.0,0.6363636363636364,75.25059012891843,104.93766575160726,49.76098761092113,-0.8086142323687493,0.25042250614792133,-0.2408060822393325,,,2.8069461148782033,0.28546970186587906,0.9838709677419355,0.45161290322580644,62.0
2,0,786.546875,True,True,72.06798866855524,90.29996827619681,92.1742575234539,,,,2.6657858129279997,0.19699151999153133,59.0,0.4406779661016949,72.99414471411185,106.22695979864774,67.7500067139767,-0.815069328322552,0.20037641475166057,-0.1884758351875064,0.06334392427359334,-1.0198491035172361,2.6657858129279997,0.2301157666672864,0.984375,0.515625,64.0
2,0,816.546875,True,True,70.02690582959642,52.615535683739694,66.07242551273256,,,,2.063082017400584,0.40924539873789373,63.0,0.4444444444444444,71.66768732436118,93.424282403344,66.19399488668493,-0.831132439342974,0.21740162231105986,-0.2040808399789209,,,2.063082017400584,0.35957196974157163,1.0,0.4090909090909091,66.0
2,0,846.546875,True,True,71.30674002751032,48.12670445854911,57.11145900780333,0.3358947499092646,0.7234685439668761,1.4114467519853666,2.200225848862749,0.5240450782932329,58.0,0.603448275862069,71.52403086510685,68.5013390214062,58.54451840266305,-0.831132439342974,0.30291267623171575,-0.2439441101706279,,,2.200225848862749,0.5240450782932329,1.0,0.234375,64.0
2,0,876.546875,True,True,72.63556116015133,73.78574345698496,72.47290966378496,,,,2.4095473516152066,0.5127471854718559,54.0,0.48148148148148145,75.01990570631021,121.7472163904359,57.355247247390814,-0.8185725720718147,0.3001241085836065,-0.22983271391271254,,,2.4095473516152066,0.4024260132765559,0.9833333333333333,0.31666666666666665,60.0
2,0,906.546875,True,True,70.9617807643847,108.52639595442074,85.66551209929987,,,,2.3397989079399104,0.2599748400203985,54.0,0.48148148148148145,74.98031518733958,147.22563993924823,45.98286252927164,-0.7375300289161076,0.15176817759563294,-0.32043802564797075,,,2.3397989079399104,0.21398765316839005,0.9642857142857143,0.42857142857142855,56.0
2,0,936.546875,True,True,71.11111111111111,117.17708287032922,92.46875432040913,0.2040647172657144,0.8673560332553358,1.2597850065089085,2.092951805524605,0.35803806827621254,59.0,0.5932203389830508,73.70775235496465,137.10264540802382,58.48987569435105,-0.7596954959901905,0.15122037804846145,-0.2966110317257708,,,2.092951805524605,0.3721378503859056,1.0,0.453125,64.0
2,0,966.546875,True,True,71.16179615110478,153.74715850726253,114.39939882122587,,,,1.9986742823454713,0.3807869173285905,60.0,0.4666666666666667,77.48892735754465,170.89930832351357,86.04030554556046,-0.8209453305446656,0.17380767945025422,-0.17482823033715067,0.1665644365814128,-0.9645566797022553,1.9986742823454713,0.3824899608196648,0.9701492537313433,0.5223880597014925,67.0
2,0,996.546875,True,True,70.68318584070796,158.7339675184424,127.01205178280101,,,,1.8979133953049323,0.5015715566639504,58.0,0.41379310344827586,76.95220032355074,159.44348657390887,103.53289424135626,-0.872118082483423,0.17552571709768755,-0.14845167353113503,0.20378074890088593,-1.1498136510353452,1.8979133953049323,0.4744708781603254,0.96875,0.546875,64.0
2,0,1026.546875,True,True,69.59223300970874,99.72027384349722,106.9371164516792,0.2771408402100363,0.7810914865119845,1.3136645865049168,1.9283637250377126,0.5359381753805751,60.0,0.5833333333333334,72.80379042789116,123.09391607451727,77.24459159112853,-0.74519858762566,0.23500452571508254,-0.23381252345102338,,,1.9283637250377126,0.5106768671251752,0.984375,0.40625,64.0
2,0,1056.546875,True,True,69.30626057529611,102.95872349839834,97.74757382441429,,,,1.8349015470412657,0.25038675845766434,66.0,0.42424242424242425,72.17503063302696,120.21857462602459,51.5589827635561,-0.6914130732248199,0.20341381769026384,-0.18683495220259705,,,1.8349015470412657,0.21788856033047874,0.9852941176470589,0.4264705882352941,68.0
2,0,1086.546875,True,True,69.1891891891892,85.63649206990243,72.62377399724676,,,,1.9110761580770506,0.21925206242711334,67.0,0.2835820895522388,69.31211909207124,59.481626308736196,51.101222323250965,-0.706731992969247,0.17702845705926037,-0.18452952967910224,0.04057967495469045,-0.8577930534317948,1.9110761580770506,0.21925206242711334,1.0,0.5,68.0
2,0,1116.546875,True,True,70.4905206139031,62.343982180087266,54.75598781644238,,,,1.992265715215145,0.29303314665236496,65.0,0.4461538461538462,72.90596632076506,115.74515037854037,63.61775144957742,-0.7915610430194819,0.2316695637760254,-0.18452952967910224,,,1.992265715215145,0.2764616764018427,1.0,0.4461538461538462,65.0
2,0,1146.546875,True,True,69.32940309506264,109.31994180298406,84.10945509303049,0.3612423307569002,0.7105659145689471,1.5495801863632008,2.3495309023739614,0.4446478420383359,56.0,0.5357142857142857,69.52866969350137,78.87654170504062,73.53926426694929,-0.8978065372336284,0.2468987361031273,-0.03527308820980756,0.12142162817332151,-1.340743116692157,2.3495309023739614,0.4033376732656117,0.9824561403508771,0.631578947368421,57.0
2,0,1176.546875,True,True,71.38780804150454,109.24514717017209,81.54520007091321,,,,2.5610468765781884,0.402146160347557,51.0,0.4117647058823529,73.29460958476228,131.8501048730311,59.41564261983474,-0.8001734941762797,0.20635216817679325,-0.10309400449102255,0.11300250930967365,-0.9870696272273479,2.5610468765781884,0.46223551668349167,0.9824561403508771,0.5789473684210527,57.0
2,0,1206.546875,True,True,70.72589382448537,94.33640133928716,78.79682725716471,,,,1.729387079854353,0.3014691976750152,58.0,0.43103448275862066,73.46045426318143,150.60135204951177,64.14290297480781,-0.8120624280509168,0.1872982737283701,-0.12728780802537631,0.14572876859818307,-0.948533752766962,1.729387079854353,0.32915403350594247,1.0,0.5,64.0
2,0,1236.546875,True,True,70.42586260491142,95.01463544444691,90.58607880690671,0.3017479119040921,0.7651689453575157,1.4182411897793277,1.6355934333800322,0.32341441426608486,63.0,0.5079365079365079,77.63588521827045,164.45259609271682,101.12320594522443,-0.8935537858128864,0.25675149177139517,-0.19537621189699672,,,1.6355934333800322,0.26906109048177757,0.9850746268656716,0.44776119402985076,67.0
2,0,1266.546875,True,True,71.43559143559143,102.31808711835963,101.18292363499923,,,,2.5606443951157,0.24996296977896013,59.0,0.4576271186440678,73.64535949034618,112.97317418348463,83.96423366809732,-0.8831329545165248,0.24148596759121313,-0.1774147852087586,0.10477015174081221,-1.086877993129458,2.5606443951157,0.2545130378546215,0.9672131147540983,0.5245901639344263,61.0
2,0,1296.546875,True,True,73.81831888428194,89.07566767124698,96.03050163525224,,,,2.717318327099382,0.329585453353525,59.0,0.423728813559322,75.8527841608666,99.23905545340351,60.18921909795824,-0.733234432445664,0.17859136474430137,-0.25202933082429335,,,2.717318327099382,0.2862452537440883,0.8833333333333333,0.4,60.0
2,0,1326.546875,True,True,74.86860695111613,72.89977616150028,78.70586301626028,0.1603947379726255,0.8868865662929166,1.1031084210512998,2.0260611048333197,0.2149199749429713,71.0,0.5070422535211268,75.17706962122342,67.05517818000187,56.13159927365047,-0.6892051915178763,0.16161434108691747,-0.21137914837324817,,,2.0260611048333197,0.1902463434722353,0.9305555555555556,0.3472222222222222,72.0
2,0,1356.546875,True,True,74.03921568627452,92.82307693630314,85.36607836199143,,,,2.7752657061773376,0.4607559136434568,64.0,0.4375,74.23313843248748,84.09697837758472,57.107431209538994,-0.7037642171214041,0.16710924266386382,-0.1991915902063575,,,2.7752657061773376,0.4607559136434568,1.0,0.30303030303030304,66.0
2,0,1386.546875,True,True,76.5038560411311,135.10095538211894,91.55414495441119,,,,3.476062457199813,0.3527499057822132,46.0,0.30434782608695654,81.70735996876513,169.48371497439774,86.71890180586801,-0.7452760970312582,0.15826534342431453,-0.2316381068570817,,,3.476062457199813,0.3536637286677444,0.9818181818181818,0.32727272727272727,55.0
2,1,2273.546875,False,False,,,,,,,,,,,,,,,,,,,,,,,
2,1,2303.546875,False,False,,,,,,,,,,,,,,,,,,,,,,,
2,1,2333.546875,False,False,,,,,,,,,,,,,,,,,,,,,,,
2,1,2363.546875,False,False,,,,,,,,,,,,,,,,,,,,,,,
2,1,2393.546875,False,False,,,,,,,,,,,,,,,,,,,,,,,
2,1,2423.546875,False,False,,,,,,,,,,,,,,,,,,,,,,,
2,1,2453.546875,False,False,,,,,,,,,,,,,,,,,,,,,,,
2,1,2483.546875,False,False,,,,,,,,,,,,,,,,,,,,,,,
2,1,2513.546875,False,False,,,,,,,,,,,,,,,,,,,,,,,
2,1,2543.546875,False,False,,,,,,,,,,,,,,,,,,,,,,,
2,1,2573.546875,False,False,,,,,,,,,,,,,,,,,,,,,,,
2,1,2603.546875,False,False,,,,,,,,,,,,,,,,,,,,,,,
2,1,2633.546875,False,False,,,,,,,,,,,,,,,,,,,,,,,
2,1,2663.546875,False,False,,,,,,,,,,,,,,,,,,,,,,,
2,1,2693.546875,False,False,,,,,,,,,,,,,,,,,,,,,,,
2,1,2723.546875,False,False,,,,,,,,,,,,,,,,,,,,,,,
2,1,2753.546875,False,False,,,,,,,,,,,,,,,,,,,,,,,
2,1,2783.546875,False,False,,,,,,,,,,,,,,,,,,,,,,,
2,1,2813.546875,False,False,,,,,,,,,,,,,,,,,,,,,,,
3,0,352.859375,True,True,55.362434921906285,154.8217210696876,126.06359033675723,,,,2.1354252838307057,1.703826474304786,45.0,0.06666666666666667,56.42371721065612,152.83513934880983,103.92964825970392,-0.7229529407438268,0.15874915556183797,-0.12870065031351707,0.04591241316930651,-0.810424673589444,2.1354252838307057,1.581263529087691,1.0,0.8863636363636364,44.0
3,0,382.859375,True,True,56.8986905582357,192.1657850749929,130.2864349098853,,,,2.071886205809254,0.7154075168237026,50.0,0.1,55.08327682305684,123.16844606245297,118.7768946419322,-0.7203153494173887,0.16574778773578433,-0.12142274750189017,0.04794647259315252,-0.7840326719035773,2.071886205809254,0.812212869336626,0.9782608695652174,0.8695652173913043,46.0
3,0,412.859375,False,False,,,,,,,,,,,,,,,,,,,,,,,
3,0,442.859375,False,True,,,,,,,,,,,69.17896740040172,340.070254914489,111.59285699149378,-0.7620853510517817,0.1384751934041521,-0.16973528599465992,0.06264535329301993,-0.7858533419793812,2.420705813941269,0.6315942292051124,0.9,0.56,50.0
3,0,472.859375,True,True,53.423820834747204,172.0239099943845,157.53863148496706,,,,1.9498738520085368,0.35133008124885307,46.0,0.17391304347826086,54.46557734717991,171.48588132376398,113.26299359462764,-0.6897359865723038,0.11224027637805317,-0.11159878673249995,0.056843216202223774,-0.7477253317301984,1.9498738520085368,0.36926520911296246,0.98,0.8,50.0
3,0,502.859375,True,True,53.93587786259542,132.81227799072096,132.34623092382944,,,,1.4558551854715873,0.2836581800901267,50.0,0.1,56.02876865157155,220.39102371342145,118.9592588970808,-0.6305278706043284,0.08161583757682879,-0.1444781135966066,0.09259149175691614,-0.6727214731204268,1.4558551854715873,0.2333148261708836,1.0,0.8703703703703703,54.0
3,0,532.859375,True,True,52.8440366972477,148.9811432051109,133.1643623340469,,,,1.7172967809543525,0.8188341291421196,47.0,0.2127659574468085,55.548549121460944,215.13106770117344,121.11111095404047,-0.6899890735501236,0.11670740490984119,-0.13331979405807437,0.11395817060579279,-0.756255834148614,1.7172967809543525,0.7736254787110544,1.0,0.875,48.0
3,0,562.859375,True,True,53.093674386450054,154.49282378856134,139.75424859373686,,,,1.8207559352702205,0.38456979231314187,46.0,0.2826086956521739,58.01429481068617,222.73278322182125,111.75945648175994,-0.7174223638398416,0.1481115726476497,-0.11844586088575768,0.062224294928041525,-0.8249569007663491,1.8207559352702205,0.33931588257842593,1.0,0.8222222222222222,45.0
3,0,592.859375,True,True,56.070087609511894,221.30763949143034,119.16730404841198,,,,2.0786304791043695,0.3093629784375455,44.0,0.3181818181818182,68.36303685305327,298.135858948093,101.62745873240989,-0.7174223638398416,0.11121433705600274,-0.1621369864966441,0.06204448624410207,-0.7490381459254226,2.0786304791043695,0.2987663299023164,0.9814814814814815,0.6111111111111112,54.0
3,0,622.859375,True,True,59.839715048975954,215.49194378476068,182.18534314250525,,,,2.1620321827789004,0.36233844926951203,46.0,0.2826086956521739,69.05310242438598,250.70817649149996,104.81450484726999,-0.6943218126261311,0.11813419754726416,-0.17934103293690268,0.04886252749826147,-0.7125153912065807,2.1620321827789004,0.35495641305337144,0.9629629629629629,0.6111111111111112,54.0
3,0,652.859375,True,True,60.56782334384857,165.9749355413075,188.63588230702558,,,,2.2997016015418437,0.3636127382082367,45.0,0.2,68.02542173278444,205.50128120104662,113.87221167379504,-0.695718572874623,0.14632021090947334,-0.13762340454207583,0.06901168430886845,-0.7854866787555853,2.2997016015418437,0.2818509357455126,0.9607843137254902,0.7254901960784313,51.0
3,0,682.859375,True,False,52.85336156696664,202.85762728355908,145.19484484219817,,,,2.3565822914338566,0.5658746465725056,36.0,0.3055555555555556,,,,,,,,,,,,,
3,0,712.859375,True,True,53.477088948787056,181.2957626692581,145.1007321492145,,,,2.0879386116967784,0.4610083666968389,38.0,0.21052631578947367,57.65629689676308,257.12094766376754,91.2850130281718,-0.7196042314108393,0.1419105049596854,-0.11533768294734498,0.07296678334423767,-0.8321995118137859,2.0879386116967784,0.4726030733913772,1.0,0.75,48.0
3,0,742.859375,True,True,54.193548387096776,158.27842761714152,136.32098124085883,,,,1.7894957221170733,0.3782213619339337,47.0,0.1276595744680851,55.488442327795426,166.1066207062908,109.14238480721166,-0.6801230446960027,0.11536607441800235,-0.10459624147075362,0.07769272057610702,-0.7504148151968812,1.7894957221170733,0.3454014860522442,1.0,0.8627450980392157,51.0
3,0,772.859375,True,True,54.79915433403806,154.6751115575083,153.3321303168387,,,,2.8438702407871075,1.746984266139955,36.0,0.3611111111111111,57.13226326227577,227.49326036852085,123.77264745862676,-0.7509273909646675,0.1348286394151767,-0.1413303457126479,0.10570562447178762,-0.8287836584710406,2.8438702407871075,1.5795320408308733,0.9761904761904762,0.8095238095238095,42.0
3,0,802.859375,False,False,,,,,,,,,,,,,,,,,,,,,,,
3,0,832.859375,False,True,,,,,,,,,,,60.05073981353516,247.7033925826435,102.63199536275705,-0.8131287000759211,0.19156168968498052,-0.10772299067273111,0.0954566918124676,-1.0035712762453026,2.965120681409105,0.5532323022205888,0.9444444444444444,0.6388888888888888,36.0
3,0,862.859375,True,True,53.74045801526718,236.29070303829042,150.64346112909243,,,,2.0115661387474653,0.9267521766523881,40.0,0.2,54.34448306035749,174.46277814892318,109.5216149159269,-0.7158542237023447,0.12354138836481697,-0.11390429289836163,0.12335446451473026,-0.8446480159939311,2.0115661387474653,0.9267521766523881,0.9487179487179487,0.8205128205128205,39.0
3,0,892.859375,False,False,,,,,,,,,,,,,,,,,,,,,,,
3,0,922.859375,False,False,,,,,,,,,,,,,,,,,,,,,,,
3,0,952.859375,True,True,54.03837953091684,164.29203594960958,137.37236289721073,,,,2.2033576174784106,1.803294504053207,39.0,0.05128205128205128,55.87099772714734,207.77186967021868,118.21216783639413,-0.7090673362515933,0.14254553215532978,-0.1695645999761928,0.09449663057466405,-0.7458395651608793,2.2033576174784106,1.2992269757055028,0.9545454545454546,0.8181818181818182,44.0
3,0,982.859375,True,False,55.192660550458704,122.19790178202987,134.58842240371922,,,,1.0451840122445024,0.28430164211572817,52.0,0.07692307692307693,,,,,,,,,,,,,
3,0,1012.859375,True,False,54.38772499262319,137.04210747721822,155.24228615526854,,,,0.9985912258886851,0.30652211751574615,51.0,0.17647058823529413,,,,,,,,,,,,,
3,0,1042.859375,True,True,52.40870527480634,170.9114662156155,157.7474540500076,,,,1.5419115158153804,0.45636493867964567,41.0,0.2926829268292683,58.14575373451957,244.56938507167342,104.9038208079948,-0.7467078095768107,0.1245160854001627,-0.1928409025413287,0.12101046946593373,-0.7246637442776878,1.5419115158153804,0.359537563542457,0.9782608695652174,0.7608695652173914,46.0
3,0,1072.859375,True,True,50.832072617246595,195.27914631174446,157.9152335341428,,,,1.7414043528323022,0.5667911268558509,39.0,0.28205128205128205,59.35858731972731,303.57832193305245,123.10326100750113,-0.7158949372694049,0.12326205071881696,-0.0935003208023091,0.07291543065583718,-0.846062312563677,1.7414043528323022,0.3385484430898529,0.9782608695652174,0.717391304347826,46.0
3,0,1102.859375,True,True,53.89473684210527,204.85120802154088,153.8317327762012,,,,1.9804245769218525,0.9816089728245005,46.0,0.21739130434782608,55.59455148014198,239.54889931669763,106.9400340652031,-0.7010906835381038,0.10840379045661765,-0.06154420277255697,0.05873061899721754,-0.7927849160607972,1.9804245769218525,0.8708027776887847,0.9607843137254902,0.7058823529411765,51.0
3,0,1132.859375,True,True,54.18234442836469,166.83625976295934,106.01229537574089,,,,2.0071344505625777,0.8837544124141591,45.0,0.2222222222222222,54.39905337749698,155.33384835336898,118.24417812872699,-0.7063173855608944,0.08345520141307822,-0.06116862146891084,0.06318487278273335,-0.7913579955562731,2.0071344505625777,0.8837544124141591,0.9591836734693877,0.7551020408163265,49.0
3,0,1162.859375,True,True,51.008174386920984,157.39501178612744,149.63307777262912,,,,1.7711736493224177,0.4918491167602752,44.0,0.13636363636363635,52.91853561578168,168.37102607559945,124.1471395628627,-0.6850842110884994,0.0908687939154745,-0.08908540705699253,0.0633179246336443,-0.767429597282759,1.7711736493224177,0.39250583708994174,0.9791666666666666,0.8541666666666666,48.0
3,0,1192.859375,True,True,51.33247089262613,221.86837412490303,183.21936561810273,,,,2.334403890537463,3.295300375993451,42.0,0.42857142857142855,51.896624740644526,173.0849152249532,105.59830686699452,-0.6850616065137587,0.1298544647031589,-0.13659450442691645,0.10593389533902356,-0.8101273570994637,2.334403890537463,2.6713129073221613,1.0,0.85,40.0
3,0,1222.859375,True,True,54.511041009463725,202.4695621843222,150.07322431483237,0.42460866548194026,0.6563450589482994,0.6607988081595688,2.154535538221807,2.5910325385303246,45.0,0.5555555555555556,55.69181253289533,213.1332291432731,88.22379666941454,-0.7105392622641792,0.16008071151088782,-0.18721520932740868,0.20077201962193766,-0.9751980746233946,2.154535538221807,2.1426118933771368,1.0,0.8604651162790697,43.0
3,0,1252.859375,True,False,53.980830670926515,157.93390984762226,162.4267412991546,,,,1.07199500123306,0.5663424453932386,48.0,0.4375,,,,,,,,,,,,,
3,0,1282.859375,True,False,54.4519940915805,172.0710192467534,154.03256093938532,,,,0.8677123074649393,0.6007212702848798,51.0,0.47058823529411764,,,,,,,,,,,,,
3,0,1312.859375,True,False,53.29890251775338,192.062346988716,132.04169069614545,,,,0.8787543952250398,0.6963736377714683,49.0,0.40816326530612246,,,,,,,,,,,,,
3,0,1342.859375,True,False,53.38388625592417,164.30535483778203,129.7356616808374,,,,0.8203227882601313,0.3564577294921141,48.0,0.3333333333333333,,,,,,,,,,,,,
3,0,1372.859375,True,True,53.09324758842444,123.7249389453338,142.327346211927,,,,1.0392160720609334,0.40403923542104864,45.0,0.4,54.22125975419133,124.60899580203494,94.41786675157772,-0.6343086469222379,0.14990050365755908,-0.17122178697035723,0.09502232828101143,-0.7529364129395433,1.0392160720609334,0.42643909510739697,0.9772727272727273,0.8863636363636364,44.0
3,0,1402.859375,True,True,53.27783558792924,99.35107834759584,108.90897742878377,,,,1.5435357683330442,0.4595212725312437,44.0,0.18181818181818182,56.870162060999654,185.7969934354743,74.68440147013108,-0.6511270451251673,0.11225596750917285,-0.13219871230319877,0.10284957444196344,-0.7554940343518125,1.5435357683330442,0.37564591184019397,0.9791666666666666,0.7916666666666666,48.0
3,0,1432.859375,True,True,53.188484519282994,75.06635136892652,104.53580427298581,,,,1.125178379273174,0.2173806441899829,52.0,0.0,54.582788519581044,115.36697604162437,101.26112071803583,-0.6749877390278187,0.08720116525478422,-0.09490396035537342,0.10511447624430237,-0.732209682961322,1.125178379273174,0.22376474908459937,1.0,0.9333333333333333,45.0
3,1,2243.859375,True,True,111.07438016528926,62.27223710892571,42.66095857295797,,,,1.602576288593291,0.3192666353675732,46.0,0.08695652173913043,111.76229001318586,98.0032320840654,70.29246536732947,-0.7910169974820314,0.1760893519547514,-0.26066476455749743,,,1.602576288593291,0.2851497919000246,0.9861111111111112,0.16666666666666666,72.0
3,1,2273.859375,True,True,99.93355481727573,116.41478397605474,75.81030457929454,,,,1.4729649729076886,0.3636537873000254,60.0,0.21666666666666667,103.78658480570641,57.344769458894184,47.24218354513486,-0.7629745676605975,0.18948735322247232,-0.26006413529972255,,,1.4729649729076886,0.3590455049103995,0.9705882352941176,0.27941176470588236,68.0
3,1,2303.859375,True,True,89.3854748603352,167.63259106371498,89.57482151055981,,,,1.5914366639335535,0.2748690457556473,61.0,0.2459016393442623,95.39675417310619,68.43933199593211,53.05273239784419,-0.6595450553001135,0.13458896753726246,-0.3073567297730639,,,1.5914366639335535,0.21330000654261774,0.9516129032258065,0.4032258064516129,62.0
3,1,2333.859375,True,True,85.90604026845637,160.2563540440116,91.90900731157964,,,,1.8683948759786007,0.39566139257387806,60.0,0.18333333333333332,88.41443647650672,118.8034445869286,76.78872233546211,-0.542651148724791,-0.029288546164310057,-0.29472972050298873,0.04958028727294487,-0.28900551981365474,1.8683948759786007,0.41600657654616424,0.9807692307692307,0.6153846153846154,52.0
3,1,2363.859375,True,True,81.75824175824177,168.3581422019705,133.89136387918595,,,,1.878115092711573,0.6994076352145124,42.0,0.19047619047619047,78.68619944735613,176.63693144394114,105.77811092409897,-0.6021179284313076,-0.030665682913692406,-0.32913474244415275,0.10233880937505362,-0.32389645761681796,1.878115092711573,0.7002642921120676,0.9777777777777777,0.6666666666666666,45.0
3,1,2393.859375,True,True,92.04671173939768,152.16488394569828,134.41133229754104,,,,1.7277067444873475,0.6314988357207921,56.0,0.21428571428571427,89.30261921364708,137.88983663841125,91.66401021715578,-0.6020305895923694,0.09448758045350097,-0.33219988626838665,,,1.7277067444873475,0.7323822569393643,0.9833333333333333,0.4,60.0
3,1,2423.859375,True,True,92.49827942188575,159.72115974659815,122.31491119238079,,,,1.537652505674132,0.6859467458489885,54.0,0.14814814814814814,97.23652699580353,138.01688098647247,109.1457284945516,-0.6915897695686477,0.20077978179988543,-0.410107242196438,,,1.537652505674132,0.551066028077509,0.9655172413793104,0.3103448275862069,58.0
3,1,2453.859375,False,False,,,,,,,,,,,,,,,,,,,,,,,
3,1,2483.859375,True,True,77.51552795031056,179.69324823581562,113.5503269824112,,,,1.4589084169846886,0.31714287660188584,42.0,0.14285714285714285,82.19794217551525,144.35722896561745,146.350571615964,-0.6814361542745977,0.03048551939861979,-0.4610772027465437,0.15750628407868045,-0.23320566854976035,1.4589084169846886,0.28997932665083653,0.9215686274509803,0.6078431372549019,51.0
3,1,2513.859375,True,True,73.74110953058322,203.0290974569256,143.14865161199856,,,,1.2130660247451712,0.6240412982290872,41.0,0.2682926829268293,78.35014972828849,149.29958764544656,108.35743157765629,-0.5892115432869347,0.13726643927820437,-0.4714098790708645,0.27561405443410536,-0.37444873044981397,1.2130660247451712,0.5312564786680581,0.9565217391304348,0.7391304347826086,46.0
3,1,2543.859375,True,True,75.4997269251775,168.3756088990416,154.65037667147672,,,,1.0133067183762468,0.6483204582512253,47.0,0.23404255319148937,77.4952031744134,138.9895947688974,95.6634734292031,-0.5654994646655642,0.20162325420021338,-0.4640577859429064,0.25897545315113696,-0.44349146484323726,1.0133067183762468,0.7088920678183749,0.9629629629629629,0.7962962962962963,54.0
3,1,2573.859375,True,True,84.78900883218841,159.3312043707615,148.75489392254994,,,,0.8546220839440961,0.14685380790334046,58.0,0.2413793103448276,91.8622314597474,102.73408002888866,93.85978106625888,-0.603921067694563,0.18132958840174465,-0.4638209110017666,0.18308846525390415,-0.27935952292021204,0.8546220839440961,0.1594488330741598,0.921875,0.546875,64.0
3,1,2603.859375,True,True,89.68858131487889,149.49566137140783,137.05316244413152,,,,0.7412004022002893,0.09144262812786896,47.0,0.2553191489361702,95.6676298402363,112.09404023370705,60.25136108031788,-0.7873844623030716,0.19364623905910333,-0.41619370822170393,,,0.7412004022002893,0.0845953535975182,0.8833333333333333,0.43333333333333335,60.0
3,1,2633.859375,False,False,,,,,,,,,,,,,,,,,,,,,,,
3,1,2663.859375,False,True,,,,,,,,,,,95.15577724161707,95.72089922220619,93.33819294545856,-0.8057210777305712,0.19312813578464963,-0.39723166119557596,,,1.1171492679339015,0.0980467100862825,0.9655172413793104,0.4482758620689655,58.0
3,1,2693.859375,True,True,82.15320910973084,179.33469630757787,133.98684248213826,,,,0.982225670600974,0.15939818061942443,44.0,0.3409090909090909,91.75152001273776,94.80077902452527,86.66854410348796,-0.7857083773238718,0.23039595127124196,-0.4559113290443766,0.19882677840159046,-0.6780495031289666,0.982225670600974,0.13662987792193806,0.9622641509433962,0.5283018867924528,53.0
3,1,2723.859375,True,False,76.70702179176756,201.84162608783228,162.23874732261865,,,,0.5951949208301255,0.2812933885011351,49.0,0.4897959183673469,,,,,,,,,,,,,
3,1,2753.859375,False,True,,,,,,,,,,,82.77778986828423,142.12314846848975,98.26369324311342,-0.7049425943031786,0.14316418564472433,-0.5797622573349305,0.28829219558146857,-0.7045836245724619,0.5693077121976605,0.30135978259231355,0.9166666666666666,0.625,48.0
3,1,2783.859375,False,False,,,,,,,,,,,,,,,,,,,,,,,
3,1,2813.859375,False,False,,,,,,,,,,,,,,,,,,,,,,,
4,0,285.296875,True,True,70.1565995525727,168.61176310733268,133.57841129570943,,,,2.8304021804004136,0.22341029208015667,55.0,0.43636363636363634,73.60623554815812,146.15808505889277,88.74944185487789,-0.6153496230418773,0.1696507479392596,-0.14809149573798114,,,2.8304021804004136,0.21380255986454702,0.9666666666666667,0.45,60.0
4,0,315.296875,True,True,67.72486772486772,167.67092872054536,134.67818054969587,0.14974543224888603,0.9184631587539281,1.153185761234157,2.5452491570902063,0.18040072202582608,55.0,0.509090909090909,69.86560247422436,154.90371040316643,104.82156236990635,-0.6136921391883858,0.15167963084806405,-0.1507196146879384,,,2.5452491570902063,0.18006226229027025,0.9666666666666667,0.43333333333333335,60.0
4,0,345.296875,True,True,64.3152709359606,184.83243355170936,142.2034429837357,,,,2.467395028045713,0.20273338827030718,55.0,0.4909090909090909,63.9821880599242,138.6691075349615,100.09674884457937,-0.6278592394342093,0.14864844573235822,-0.14373323181652858,,,2.467395028045713,0.18967121840014523,1.0,0.4642857142857143,56.0
4,0,375.296875,True,True,64.46346280447663,185.85883057299372,158.004265076162,,,,2.3510128157589794,0.25801116493165605,57.0,0.38596491228070173,64.00291533577767,121.54872640067597,87.24601517251948,-0.639389049553234,0.14513481701763997,-0.12983291067288333,,,2.3510128157589794,0.24316878752993706,0.9830508474576272,0.4576271186440678,59.0
4,0,405.296875,True,True,61.49903907751441,173.6819441668933,185.2173234686183,,,,2.3442247954650717,0.2597135507790251,55.0,0.45454545454545453,61.740138256066125,77.201470185213,78.67170995013424,-0.6345898909160719,0.14895954894141275,-0.14697719869911535,,,2.3442247954650717,0.24073755024708643,1.0,0.4642857142857143,56.0
4,0,435.296875,True,True,59.58620689655172,175.48646447471805,183.83199477411864,,,,2.3465531026046325,0.24338617121764064,56.0,0.48214285714285715,60.43798798500233,104.19890964214497,91.402606845107,-0.6489933608438703,0.14424270612137077,-0.17026307698884724,,,2.3465531026046325,0.24338617121764064,1.0,0.42105263157894735,57.0
4,0,465.296875,True,True,59.3644431720584,210.4170963967009,176.68460011179997,,,,2.3086475870139327,0.2418198601266158,56.0,0.3392857142857143,61.21081625730148,138.899252526981,91.34025855423991,-0.656747681372426,0.13804429983552313,-0.14123426272693743,,,2.3086475870139327,0.2535396791356648,0.9827586206896551,0.46551724137931033,58.0
4,0,495.296875,True,True,59.561018437225634,202.23556595212432,164.26039332266353,,,,2.2702650194664686,0.2584849235605236,57.0,0.40350877192982454,61.273452949932974,151.1871698936434,97.16923715617142,-0.6455571672145979,0.14053979831038377,0.008335812259814652,0.11299667567175954,-0.9820375870638927,2.2702650194664686,0.26920421748056933,1.0,0.5423728813559322,59.0
4,0,525.296875,True,True,59.449541284403665,169.22862217601337,158.28008129456904,0.18041836286093008,0.9076069749232466,1.2037243280753163,2.215925516373768,0.28365095161173387,56.0,0.5892857142857143,62.14990721561974,151.58785934265637,108.59270171543609,-0.65711819034856,0.1558220530309437,-0.1679146167358161,,,2.215925516373768,0.27291642105651115,0.9672131147540983,0.45901639344262296,61.0
4,0,555.296875,True,True,59.06009683850755,190.89619639273457,161.340228527222,0.15581001949414716,0.9245127856921406,1.280402750428036,2.182530528165443,0.32113972169041566,56.0,0.6071428571428571,61.95322018787295,147.37584951347455,91.85860897795666,-0.6701664972595652,0.17002781450250146,-0.17463053038759355,,,2.182530528165443,0.2905464733406596,0.95,0.4,60.0
4,0,585.296875,True,True,57.744360902255636,193.9902174122472,138.55804186660944,0.1488938461341034,0.9228110926844898,1.3306897106424511,2.2111704718854384,0.3360115876398105,56.0,0.5535714285714286,59.50932163982479,116.34658808750933,77.91588985067462,-0.6575699639778557,0.1597432469131048,-0.15830551220407582,,,2.2111704718854384,0.28440822597237564,0.9827586206896551,0.43103448275862066,58.0
4,0,615.296875,True,True,60.45413260672117,183.04266830136075,160.84814131960687,0.1487728854872983,0.9262648926639496,1.292949540095464,2.3215312745820307,0.26551122485666917,56.0,0.625,60.936183972904956,88.76099193391167,87.574063296892,-0.653330797479283,0.14855324268482092,-0.15830551220407582,,,2.3215312745820307,0.26551122485666917,1.0,0.49122807017543857,57.0
4,0,645.296875,True,True,64.97884803123983,172.2578071923478,144.45360096197794,0.18055089876162722,0.8939352340244053,1.2866268159931098,2.471998667273659,0.2503643404558824,57.0,0.5263157894736842,66.55814846197947,116.34361056394431,78.5447490226138,-0.6719206991175604,0.16452534528201807,-0.15403107682286227,,,2.471998667273659,0.22633642129314155,0.9830508474576272,0.4406779661016949,59.0
4,0,675.296875,True,True,62.66009852216749,171.392936253526,155.73576092902638,0.20967872244352176,0.8698309273988246,1.2698863658057127,2.3947113097634354,0.29714338330156276,57.0,0.5614035087719298,66.37289084943912,146.2051926994564,84.59387804128482,-0.6709877817401495,0.17869375428470913,-0.1943639401566678,,,2.3947113097634354,0.25543351565228684,0.9841269841269841,0.2698412698412698,63.0
4,0,705.296875,True,True,58.92857142857143,192.86694946440943,169.77324572274424,0.173756902727327,0.9096467025875232,1.2783194239927298,2.283791312528778,0.3592379939964661,56.0,0.6428571428571429,62.75951123357665,162.04253540763526,96.33310350716918,-0.6585221832972963,0.17647035647858583,-0.18682980975455016,,,2.283791312528778,0.32565079676831865,1.0,0.38333333333333336,60.0
4,0,735.296875,True,True,55.77898034747935,196.53672697238957,153.7515769473377,0.15388192873410902,0.9375426091635851,1.2841047350079624,2.3179271709623075,0.3505525955109753,53.0,0.5660377358490566,60.82201441583541,206.61642945479787,107.07589225368281,-0.6587044137717977,0.1537049345272993,-0.1685391436405334,,,2.3179271709623075,0.30925545228006657,1.0,0.4107142857142857,56.0
4,0,765.296875,True,True,58.13196229648671,178.89969164004788,128.20455743769062,0.16496488959097746,0.9243627686420028,1.3129072457617939,2.3025493212177928,0.34043810046715167,55.0,0.6363636363636364,62.63661915830214,169.37070875105834,85.69818529569892,-0.6572019267449327,0.16116898697936935,-0.19977781089910335,,,2.3025493212177928,0.27713675491936707,1.0,0.2542372881355932,59.0
4,0,795.296875,True,True,58.786221979223626,164.90536043981626,142.47909660279996,0.1533204520298746,0.926890731626573,1.2905136817119718,2.2984864074438707,0.29779922284405363,57.0,0.7192982456140351,59.482018993680974,82.79306669321555,73.60160449151162,-0.6515650824095309,0.16729361164227352,-0.19977781089910335,,,2.2984864074438707,0.27407466666934016,1.0,0.3448275862068966,58.0
4,0,825.296875,True,True,63.34733053389323,199.33907062555988,128.07658116100654,0.20197043494041297,0.8639545952538944,1.3062817136579556,2.2486296806281785,0.2863589296824635,58.0,0.6551724137931034,66.26000736302325,163.25267476062527,82.34218417171836,-0.6601509062122609,0.186964491595575,-0.20923972244081732,,,2.2486296806281785,0.2935999423025743,0.9836065573770492,0.2786885245901639,61.0
4,0,855.296875,True,True,66.51968503937007,159.10171244583967,97.06497135822339,0.23354676254222692,0.8388870021886178,1.316149091682028,2.2519719031101424,0.32537416420292464,59.0,0.6949152542372882,69.42045397014887,136.54604634381792,100.9648520818649,-0.6673209014963386,0.20779241933506737,-0.1994340988672535,,,2.2519719031101424,0.3073568461623383,0.9838709677419355,0.1774193548387097,62.0
4,0,885.296875,True,True,57.62770562770563,168.77010722827742,138.41580670889795,0.18086706405211428,0.904922986028855,1.3405188045046448,2.35614328048964,0.3438438303875862,54.0,0.7037037037037037,59.419552552779116,136.1565766443054,122.25005608939935,-0.6687719824706992,0.17224740975816386,-0.18263120056775783,,,2.35614328048964,0.28727101188899473,0.9814814814814815,0.3148148148148148,54.0
4,0,915.296875,True,True,56.035242290748904,178.3263604818615,165.24756880575313,0.15347781156575074,0.9279062982412503,1.3683255170500512,2.3626577379370692,0.3115858230265183,54.0,0.7407407407407407,56.87906756559995,127.62286480976748,114.83472766015055,-0.6731901332039448,0.15424847730567381,-0.1636170441298651,,,2.3626577379370692,0.3115858230265183,0.9814814814814815,0.4074074074074074,54.0
4,0,945.296875,True,True,58.046511627906966,168.60993572768336,140.88998952837477,0.15674522013397216,0.9209295458713125,1.3095070217621916,2.327223548486225,0.3572237797766042,54.0,0.7592592592592593,58.704710428492156,117.29363678361322,105.54677145694602,-0.6773034395039373,0.16340734083321395,-0.1783740469746601,,,2.327223548486225,0.3271923416923169,1.0,0.40350877192982454,57.0
4,0,975.296875,True,True,57.64434180138568,171.78177747478975,162.08714916245245,0.16047775451689875,0.9176755215150788,1.326573489017816,2.2978673834578744,0.349687026279316,54.0,0.6851851851851852,59.91939436059083,147.27305302953755,103.4899648528208,-0.6836082082095046,0.1714234414954855,-0.18578993284508716,,,2.2978673834578744,0.29654992249940215,0.9827586206896551,0.3620689655172414,58.0
4,0,1005.296875,True,True,58.24600110314396,192.07041905358793,162.0034480728728,0.15844318096885307,0.9169855470601205,1.2845219208605614,2.3137876707823883,0.3273862313397669,56.0,0.7142857142857143,60.77429411667677,140.62239082295343,91.25449770737826,-0.6958335596980985,0.17666964559637494,-0.18534893341639652,,,2.3137876707823883,0.3188819056737392,0.9827586206896551,0.3620689655172414,58.0
4,0,1035.296875,True,True,58.89236012496449,156.1727294086427,119.31355156188053,0.1572449765234416,0.9215709327196824,1.2810567507290314,2.300345329768696,0.3321632297698635,55.0,0.8181818181818182,59.99084292821545,104.15381011253126,88.9929969762326,-0.6989857918028123,0.1652269471235998,-0.16700861467903125,,,2.300345329768696,0.30778179558213087,0.9827586206896551,0.4482758620689655,58.0
4,0,1065.296875,True,True,57.39742086752638,174.78376434028644,129.58437899873505,0.15005233984280134,0.9386335960245525,1.339359885374765,2.2861225980472226,0.3471919880262526,54.0,0.8148148148148148,58.51585473516808,96.4510268532773,96.21341417784664,-0.6995932548771242,0.15772695853757795,-0.1473669187928864,,,2.2861225980472226,0.31815787055982087,0.9824561403508771,0.47368421052631576,57.0
4,0,1095.296875,True,True,56.38046600702203,163.9170407047227,130.5015637605136,0.14349219394197532,0.9436226070666612,1.3773085087033718,2.2857481415336016,0.32807387935464494,51.0,0.6470588235294118,59.37520765253851,167.65943993790057,91.70319326040608,-0.683223533929948,0.1585124035894935,-0.17173968186497443,,,2.2857481415336016,0.2932545613971861,0.9818181818181818,0.38181818181818183,55.0
4,0,1125.296875,True,True,56.45398412231697,121.91219670466587,98.52662726269435,0.1412203088881959,0.9403198373708304,1.3623150463988551,2.2751755697202025,0.34564404268667487,53.0,0.7358490566037735,60.88376516523504,208.37507483213847,90.73133048119163,-0.6826668816742401,0.1689333983573211,-0.1941835486243282,,,2.2751755697202025,0.33177894999025637,0.9821428571428571,0.30357142857142855,56.0
4,0,1155.296875,True,True,61.707398727820554,164.67447234309958,96.69501589002905,0.20473651366800516,0.8818384056835341,1.3445456524320982,2.2550960947931373,0.39529808999684407,53.0,0.7735849056603774,67.01515813056687,173.28738942121103,82.58731929389036,-0.6828504772894766,0.1811885803804701,-0.20927169155390407,,,2.2550960947931373,0.3323035477948936,0.9666666666666667,0.26666666666666666,60.0
4,0,1185.296875,True,True,66.44808743169399,229.96004739892427,132.0610937135767,0.27926648632500545,0.8117012523659404,1.340028484864565,2.7815361718133067,0.24553035134918613,46.0,0.5869565217391305,71.00863490730336,118.53693001569602,48.082197780206315,-0.6791781323884983,0.22183663545136226,-0.24192670673338323,,,2.7815361718133067,0.21226635838239025,0.9423076923076923,0.19230769230769232,52.0
4,0,1215.296875,True,True,62.676822633297064,236.89142385363448,123.71162204775872,,,,2.904073451927406,0.248070301599921,41.0,0.4634146341463415,68.29547483252735,205.11632722554472,89.14188603602204,-0.6785578199972617,0.16807298705174448,-0.22522369327656883,,,2.904073451927406,0.24350898873686586,0.9411764705882353,0.23529411764705882,51.0
4,0,1245.296875,True,True,59.95642701525055,204.4926908400504,165.9053793805596,0.15565044965972152,0.9126446960865751,1.2154951422128595,2.3425117719895687,0.39105459103707996,50.0,0.56,66.84474623827776,208.7010174288693,115.02637183282518,-0.6425296277241466,0.15135276079001153,-0.18565135288565218,,,2.3425117719895687,0.2880342675007758,0.9824561403508771,0.24561403508771928,57.0
4,0,1275.296875,True,True,58.82847702012616,142.45607983295258,152.34957315942984,0.15083065224316367,0.9154041161334223,1.2877911916317752,2.246577866678068,0.3123031662288279,55.0,0.7272727272727273,64.03909354231276,176.71146414182283,108.03695337552988,-0.6706031312877893,0.15269839481524167,-0.18565135288565218,,,2.246577866678068,0.2495780181712146,0.9666666666666667,0.38333333333333336,60.0
4,0,1305.296875,True,True,58.015963511972636,145.45190156697325,139.46913252268558,0.14286658141789865,0.9296659132576891,1.3139324442587843,2.207504354035486,0.35159039837983164,55.0,0.7818181818181819,61.80626019275172,134.9456278392481,116.18501722796731,-0.6834468981675424,0.15399434681419533,-0.163232570270161,0.13735687261695165,-1.0361640122518916,2.207504354035486,0.29346242614473655,0.9649122807017544,0.5087719298245614,57.0
4,0,1335.296875,True,True,57.33125972006221,169.07135426254135,128.93061824040456,0.1414308836043355,0.9300311432705417,1.3125542068587333,2.178811802864649,0.39156718329209245,53.0,0.6981132075471698,61.205051628846554,160.03620935463897,128.99566770298082,-0.6843506205271047,0.14597108327730193,-0.16276025867910524,,,2.178811802864649,0.3542936374266995,0.9821428571428571,0.44642857142857145,56.0
4,0,1365.296875,True,True,58.465286236297196,168.94947582828738,121.89216912032184,0.14355004516725464,0.918106843666746,1.3107793533564063,2.2336275655954725,0.33248281893688336,54.0,0.6296296296296297,62.096103457721654,159.48853029096313,126.13211307159203,-0.6789464080394251,0.14597108327730193,-0.16023958168609306,,,2.2336275655954725,0.3019440687187276,1.0,0.45614035087719296,57.0
4,1,3613.296875,False,False,,,,,,,,,,,,,,,,,,,,,,,
4,1,3643.296875,False,False,,,,,,,,,,,,,,,,,,,,,,,
4,1,3673.296875,False,False,,,,,,,,,,,,,,,,,,,,,,,
4,1,3703.296875,False,False,,,,,,,,,,,,,,,,,,,,,,,
4,1,3733.296875,True,False,79.83903420523139,182.4562429130804,136.26536929115758,,,,2.7566315373687686,0.4479802353851609,44.0,0.29545454545454547,,,,,,,,,,,,,
4,1,3763.296875,False,False,,,,,,,,,,,,,,,,,,,,,,,
4,1,3793.296875,False,False,,,,,,,,,,,,,,,,,,,,,,,
4,1,3823.296875,False,False,,,,,,,,,,,,,,,,,,,,,,,
4,1,3853.296875,True,False,68.57142857142857,173.26354097048124,172.9811705115979,,,,2.4788055787870023,0.5190520758331697,44.0,0.29545454545454547,,,,,,,,,,,,,
4,1,3883.296875,True,False,68.9108910891089,175.83191490704084,173.94585783609028,,,,2.5187361551538108,0.3462207018217564,43.0,0.37209302325581395,,,,,,,,,,,,,
4,1,3913.296875,False,False,,,,,,,,,,,,,,,,,,,,,,,
4,1,3943.296875,False,False,,,,,,,,,,,,,,,,,,,,,,,
4,1,3973.296875,False,False,,,,,,,,,,,,,,,,,,,,,,,
4,1,4003.296875,False,False,,,,,,,,,,,,,,,,,,,,,,,
4,1,4033.296875,False,False,,,,,,,,,,,,,,,,,,,,,,,
4,1,4063.296875,False,False,,,,,,,,,,,,,,,,,,,,,,,
4,1,4093.296875,False,False,,,,,,,,,,,,,,,,,,,,,,,
4,1,4123.296875,False,False,,,,,,,,,,,,,,,,,,,,,,,
4,1,4153.296875,False,False,,,,,,,,,,,,,,,,,,,,,,,
4,1,4183.296875,False,False,,,,,,,,,,,,,,,,,,,,,,,
5,0,279.375,False,False,,,,,,,,,,,,,,,,,,,,,,,
5,0,309.375,False,False,,,,,,,,,,,,,,,,,,,,,,,
5,0,339.375,False,False,,,,,,,,,,,,,,,,,,,,,,,
5,0,369.375,True,False,70.86505190311419,181.6734789703481,133.11449797962814,0.4046360657602984,0.6973575121036825,1.2621549937409176,3.160523527583964,0.4929818099169172,43.0,0.627906976744186,,,,,,,,,,,,,
5,0,399.375,True,False,70.40902679830748,173.8371391893529,135.5815361366601,,,,3.103154144273156,0.7569275567262821,38.0,0.42105263157894735,,,,,,,,,,,,,
5,0,429.375,True,True,64.36994219653178,179.53098103867578,139.90830439865204,,,,3.013791959744642,0.9388541647317719,38.0,0.34210526315789475,66.87696754742123,150.97087444819007,40.33855274270786,-0.5834662062194427,0.08258711553073503,-0.2161623652654175,0.09974134351759222,-0.6526080599079787,3.013791959744642,0.7334042892045662,0.9090909090909091,0.5757575757575758,33.0
5,0,459.375,True,True,62.7290198590647,155.31953346405018,132.012621597442,,,,2.2591214737283485,0.27676066372295566,55.0,0.2909090909090909,62.01920686581266,75.71917239162214,52.02532579206037,-0.5179478689957457,0.07129577360737627,-0.14101102633037468,0.03835242912154761,-0.5154951406611977,2.2591214737283485,0.27676066372295566,0.9814814814814815,0.7407407407407407,54.0
5,0,489.375,True,True,60.93223140495868,96.45313856247887,98.05806756909202,,,,2.809484175305492,0.270247427332899,53.0,0.20754716981132076,61.18933624488718,43.52848084344939,24.976364181025808,-0.5218595360726854,0.06938504950924104,-0.11314877286621801,0.031263462592302796,-0.5228674594002967,2.809484175305492,0.270247427332899,1.0,0.7857142857142857,56.0
5,0,519.375,False,True,,,,,,,,,,,61.97281576168472,100.69143102736035,28.622817081708455,-0.5833833933253019,0.08771227456675011,-0.1426387010132411,0.05372164528281395,-0.6034316369170762,3.309309848910318,0.22370218881517362,1.0,0.8409090909090909,44.0
5,0,549.375,False,True,,,,,,,,,,,63.94602446751057,126.51811865976099,64.90999844715476,-0.6369884518918629,0.11262870343001356,-0.18875330250359157,0.06453181361358784,-0.6565617302031238,3.347452080419947,0.1500421700740398,0.9722222222222222,0.8333333333333334,36.0
5,0,579.375,False,True,,,,,,,,,,,63.025231671987015,112.57414461863355,99.10586615801071,-0.6209200494680781,0.12978656397615748,-0.20214645864664343,0.08889928885519466,-0.6745686020254623,3.034983845928813,0.3645603722388948,0.9782608695652174,0.7608695652173914,46.0
5,0,609.375,False,True,,,,,,,,,,,60.839733952889794,106.0845184361029,70.82262750589791,-0.6246355844473781,0.07540387796099272,-0.29655088045728517,0.15617196040690431,-0.6581433845412314,3.1410931988533126,0.2828070415118818,1.0,0.6904761904761905,42.0
5,0,639.375,True,True,61.26178390137781,196.0113309551891,141.20251783047874,,,,2.8776594500930988,0.23805681026039882,32.0,0.46875,60.81523375729377,122.06471230236825,64.90576013135265,-0.6851466349375841,0.08748611996872897,-0.3885184978409336,0.20454053862168264,-0.6749786962375315,2.8776594500930988,0.23805681026039882,0.9761904761904762,0.6666666666666666,42.0
5,0,669.375,True,True,61.141088014153034,180.44075209708342,123.0745041013069,0.47424741462188175,0.6811529867730217,1.4022009211376592,2.1713116035148343,0.3873931467595252,46.0,0.717391304347826,74.37260126207482,251.8721571007896,125.6109774194146,-1.0423326117931666,0.3784877788634471,-0.4298957457647346,0.22180176480390568,-0.9440359795243047,2.1713116035148343,0.25299854481815837,0.9622641509433962,0.6037735849056604,53.0
5,0,699.375,True,True,62.131018153117594,85.73979475556033,54.52312481604372,,,,2.675481098855974,0.22468185416330994,49.0,0.40816326530612246,67.02900537737735,186.7416557170255,61.029597114826785,-0.7813275128752293,0.21745557988322456,-0.1856420840034945,0.09690367462917651,-0.9146491683257729,2.675481098855974,0.17948794190769995,0.9821428571428571,0.7321428571428571,56.0
5,0,729.375,True,True,62.679396365876194,77.71230802678417,54.742182045457774,,,,1.7413991506697042,0.220306640757849,57.0,0.10526315789473684,62.34452630268411,52.33382118909832,28.931656583708556,-0.7501941588967396,0.21242238862541837,-0.12350909399636889,0.08838392040281118,-0.9056861800881182,1.7413991506697042,0.220306640757849,0.9473684210526315,0.6842105263157895,57.0
5,0,759.375,True,True,61.55819172811798,112.35863070602387,105.2956258252677,,,,1.8660541357878715,0.32460288306226637,55.0,0.09090909090909091,65.30574646130664,150.14430151298916,59.180898562687695,-0.8006109913762232,0.21533288894612157,-0.1388819016148003,0.07800314362349951,-1.0223943310255674,1.8660541357878715,0.2741995164645473,0.9298245614035088,0.5964912280701754,57.0
5,0,789.375,True,True,60.510557831705015,133.1154632734304,118.18254873534161,,,,1.9037852426010413,0.32050197273631403,55.0,0.12727272727272726,63.88947783884988,125.64837788935243,54.0357007294643,-0.8057754646643278,0.19245203491560775,-0.1092641940613713,0.07940963347095246,-1.0547450329264778,1.9037852426010413,0.25660320232839195,0.9830508474576272,0.6949152542372882,59.0
5,0,819.375,True,True,61.97320341047502,140.9239032272964,82.5117824747417,,,,2.5827621608443088,0.5373617980636638,56.0,0.14285714285714285,62.372986530261606,91.27053299616452,39.82684508032763,-0.7007371798538865,0.13787989491371247,-0.06974532973124173,0.0926041288970842,-0.9790652758615201,2.5827621608443088,0.5373617980636638,0.9821428571428571,0.6607142857142857,56.0
5,0,849.375,True,True,60.73410922112802,111.10587462211109,77.15488101794739,,,,2.635743783478191,0.5432682053890087,56.0,0.17857142857142858,60.696860263586586,70.81198500344377,52.073831049956084,-0.6366848146265798,0.14746523710069237,-0.12846556106156812,0.07940510058863282,-0.808118715579419,2.635743783478191,0.5432682053890087,1.0,0.6296296296296297,54.0
5,0,879.375,True,True,60.67456700091157,97.61912473050786,55.92028069093709,,,,2.1523887895437834,0.2555973214046377,56.0,0.21428571428571427,61.956169081836066,100.20161206232575,76.94272177577272,-0.7000490338903873,0.16636845456295288,-0.15182055006639245,0.04107653213738009,-0.8632439353591488,2.1523887895437834,0.23783232623657422,1.0,0.6181818181818182,55.0
5,0,909.375,True,True,63.114186851211066,86.1599788940065,62.97170480509961,,,,2.9483384874457594,0.20422673070151537,46.0,0.2826086956521739,63.29453819369614,77.55915453811141,35.108433948787095,-0.7451685728599199,0.1865908788928078,-0.17755878637665606,0.1254477994769232,-0.9464884567163897,2.9483384874457594,0.20422673070151537,0.9824561403508771,0.6491228070175439,57.0
5,0,939.375,False,False,,,,,,,,,,,,,,,,,,,,,,,
5,0,969.375,True,True,61.32921174652242,88.90953781219703,73.04056933320358,,,,3.09041234774283,0.41535519593777276,37.0,0.2972972972972973,63.02425056808954,128.05749333213325,65.82309531097384,-0.7534903146610284,0.15455290244152098,-0.18143722258402628,0.06209128515812269,-0.8166943661011921,3.09041234774283,0.30770743878491696,1.0,0.7142857142857143,49.0
5,0,999.375,True,True,61.26608337622233,177.66695020428662,66.7500292602932,,,,3.153918218225347,0.8363088497391976,41.0,0.36585365853658536,65.91883081712503,191.05436784597643,73.20015432916168,-0.7497742482725449,0.14758011546851885,-0.18143722258402628,0.06743747315482282,-0.815473424738974,3.153918218225347,0.6570001174864183,0.9811320754716981,0.660377358490566,53.0
5,0,1029.375,False,False,,,,,,,,,,,,,,,,,,,,,,,
5,0,1059.375,False,False,,,,,,,,,,,,,,,,,,,,,,,
5,0,1089.375,False,True,,,,,,,,,,,68.4057248640514,164.79712492837658,104.19292301247083,-0.6735705721686731,-0.028198764543791867,-0.451538724059581,0.16556294650620929,-0.3860482525302156,2.580678850956989,0.2942464954806911,0.9019607843137255,0.7058823529411765,51.0
5,0,1119.375,False,True,,,,,,,,,,,69.07721970661302,168.90554137139878,99.12091544093374,-0.7570448698197404,0.035826757693185066,-0.451538724059581,0.1111881053035649,-0.3861064346328831,3.1559033190763346,0.24636552400452633,0.9111111111111111,0.7111111111111111,45.0
5,0,1149.375,True,True,71.73100871731009,201.00993213294703,106.58647701905403,0.5475899125047663,0.5475695408634262,1.1483196072604214,3.030196592135909,0.22310628197925014,41.0,0.6097560975609756,77.75450284452867,187.07782259968297,74.03109248352669,-0.8663920424159115,0.23443855556981802,-0.23395940908266152,0.11238227632912237,-0.9938503786038368,3.030196592135909,0.20848813740757435,0.9387755102040817,0.5510204081632653,49.0
5,0,1179.375,True,True,69.22587486744433,159.1229854504468,66.21115042209576,,,,2.7759522216475228,0.5077042736735631,47.0,0.48936170212765956,73.52185262256987,165.13577115448442,59.3646781277942,-0.8204648535246473,0.18330657962959124,-0.22668336682257345,0.09293317353402059,-0.8909196437039086,2.7759522216475228,0.42379496280964435,1.0,0.6122448979591837,49.0
5,0,1209.375,False,False,,,,,,,,,,,,,,,,,,,,,,,
5,0,1239.375,False,False,,,,,,,,,,,,,,,,,,,,,,,
5,0,1269.375,True,True,62.0990099009901,55.27465111810965,54.32234456984729,,,,2.5823372606432815,0.08637568187456253,52.0,0.4807692307692308,63.069974314224474,99.73237196002076,59.9575200720124,-0.7191104748385551,0.14838520505962838,-0.09953322514381087,0.1290075445388155,-0.8452414459122165,2.5823372606432815,0.06825304644630284,1.0,0.625,56.0
5,0,1299.375,True,True,63.4500991407799,111.6178566286208,65.4291790482674,,,,2.3396238196284256,0.31969625661159,55.0,0.43636363636363634,66.94841115715103,171.8937805107707,39.490230198063024,-0.7592321251404299,0.1943523672004271,-0.2178507419730858,0.1188096852999859,-0.8291815897313148,2.3396238196284256,0.2799654052441106,1.0,0.6071428571428571,56.0
5,0,1329.375,True,False,65.80645161290322,164.00645475537243,69.31585316505885,0.47381248878301213,0.6069071588805737,1.8847805404553166,3.2392882411147905,0.4252305128219087,40.0,0.5,,,,,,,,,,,,,
5,0,1359.375,False,True,,,,,,,,,,,67.71344701352226,215.71032578064526,70.51325020108507,-0.7261330352981762,0.1947737048524284,-0.17524125617353142,0.09429618486712141,-0.8515626380605122,3.1627406814978634,0.4157211623828631,0.9814814814814815,0.5925925925925926,54.0
5,0,1389.375,True,True,60.883352208380515,126.76877654994695,99.81129112883751,,,,2.421612067591843,0.28200184522961214,49.0,0.22448979591836735,60.96546367601246,128.20903165499874,76.43451832560663,-0.6688378040549534,0.1689749056382565,-0.1686118425039524,0.021278444438970624,-0.6905233271789234,2.421612067591843,0.28200184522961214,1.0,0.5740740740740741,54.0
5,1,3602.375,False,False,,,,,,,,,,,,,,,,,,,,,,,
5,1,3632.375,False,False,,,,,,,,,,,,,,,,,,,,,,,
5,1,3662.375,False,False,,,,,,,,,,,,,,,,,,,,,,,
5,1,3692.375,False,False,,,,,,,,,,,,,,,,,,,,,,,
5,1,3722.375,False,False,,,,,,,,,,,,,,,,,,,,,,,
5,1,3752.375,False,False,,,,,,,,,,,,,,,,,,,,,,,
5,1,3782.375,False,False,,,,,,,,,,,,,,,,,,,,,,,
5,1,3812.375,False,False,,,,,,,,,,,,,,,,,,,,,,,
5,1,3842.375,False,False,,,,,,,,,,,,,,,,,,,,,,,
5,1,3872.375,False,False,,,,,,,,,,,,,,,,,,,,,,,
5,1,3902.375,False,False,,,,,,,,,,,,,,,,,,,,,,,
5,1,3932.375,False,False,,,,,,,,,,,,,,,,,,,,,,,
5,1,3962.375,False,False,,,,,,,,,,,,,,,,,,,,,,,
5,1,3992.375,False,False,,,,,,,,,,,,,,,,,,,,,,,
5,1,4022.375,False,False,,,,,,,,,,,,,,,,,,,,,,,
5,1,4052.375,False,False,,,,,,,,,,,,,,,,,,,,,,,
5,1,4082.375,False,False,,,,,,,,,,,,,,,,,,,,,,,
5,1,4112.375,False,False,,,,,,,,,,,,,,,,,,,,,,,
5,1,4142.375,False,False,,,,,,,,,,,,,,,,,,,,,,,
5,1,4172.375,False,False,,,,,,,,,,,,,,,,,,,,,,,
6,0,642.703125,False,True,,,,,,,,,,,77.35479761412252,180.06408509876064,67.8648476193429,-0.6528763106876594,0.19018899000522896,-0.2270867031141196,0.056005156606139264,-0.6157054728852057,2.4701134731736696,0.15651232250529232,0.9622641509433962,0.5094339622641509,53.0
6,0,672.703125,True,True,70.656,190.9184157840915,163.40670297972386,,,,2.40344226063214,0.12927870780293033,55.0,0.2545454545454545,69.8255926180334,97.32339932761452,46.95204737323891,-0.6587078571762411,0.16741140753828537,-0.14852996483290806,0.0016018094696480672,-0.6389589432554919,2.40344226063214,0.15620068196865544,0.9622641509433962,0.5660377358490566,53.0
6,0,702.703125,True,True,69.17469627147047,149.53471724593493,146.93593594091726,,,,1.9831048195116938,0.26714140160372174,53.0,0.49056603773584906,69.08492168222412,61.816214324871225,37.389132429822816,-0.6613094471876552,0.21246931132680366,-0.14459133461791315,,,1.9831048195116938,0.26714140160372174,1.0,0.49056603773584906,53.0
6,0,732.703125,True,True,70.31536113936927,186.16630496724892,155.92797698730314,0.20651803639660274,0.8606458227587614,1.1719447966250927,2.284483486510632,0.2636356367607888,49.0,0.5714285714285714,73.53941638300253,124.69864666204145,35.15665021821427,-0.7043294486723899,0.23339310077029862,-0.18962860695285932,,,2.284483486510632,0.24399836809784797,1.0,0.4230769230769231,52.0
6,0,762.703125,True,True,66.15505090054816,189.24678534935126,153.09310892394862,,,,1.7449050508223416,0.2868102824402842,54.0,0.4444444444444444,67.31376926255362,76.47327809378376,59.1212609639518,-0.6493714575587806,0.20601621701309997,-0.17252574110751662,0.008699282495057475,-0.7454824338109369,1.7449050508223416,0.2582301160110066,0.9824561403508771,0.5789473684210527,57.0
6,0,792.703125,True,True,65.32354903268846,166.77998598599953,172.2398724474513,,,,1.885092366197036,0.2583025005563645,57.0,0.42105263157894735,66.61367636412375,85.31588027364468,56.82834979757635,-0.6229183701571649,0.2205274703247312,-0.16730682668924024,0.008041349493561325,-0.7367292321745847,1.885092366197036,0.2161388522367766,0.9830508474576272,0.559322033898305,59.0
6,0,822.703125,True,True,68.03603603603602,182.84614122847114,174.7898353598941,0.20159665205609928,0.8867561001646528,1.2878389735650289,1.8789307717024148,0.2748382804090561,63.0,0.5238095238095238,68.63953202273338,87.1815652517665,40.707831513176906,-0.6408410572360959,0.2192860970066624,-0.14006315394568264,,,1.8789307717024148,0.2748382804090561,0.984375,0.453125,64.0
6,0,852.703125,True,True,66.62627375378685,166.45839821857476,147.5858722029756,,,,1.7644668411132616,0.2505110108187509,64.0,0.4375,66.64421184131196,63.825824109062445,41.1368678265466,-0.6427023769226601,0.1931077454298567,-0.1360016592352018,0.01492305848946299,-0.8052806855200674,1.7644668411132616,0.2505110108187509,1.0,0.5396825396825397,63.0
6,0,882.703125,True,True,66.94484138325235,182.32959695156973,156.75142756811772,,,,1.712881577129542,0.24457971772955836,64.0,0.359375,67.32468856011386,128.45046352367237,56.15298435938959,-0.6422221898916034,0.18616214560482447,-0.14391107149055296,0.019025659709691525,-0.726509547073702,1.712881577129542,0.24457971772955836,0.984375,0.546875,64.0
6,0,912.703125,True,True,67.1686925585532,158.58047980336022,162.0285629397895,,,,1.62887034824621,0.25553163136115864,64.0,0.453125,69.4280897228255,149.72644970089266,63.40379229031137,-0.6536182006358077,0.1714874335573157,-0.14773178113916063,,,1.62887034824621,0.25228986259852937,1.0,0.4925373134328358,67.0
6,0,942.703125,True,True,67.05882352941177,172.89990473080388,147.46371991734262,0.1530887450831508,0.9190127637915904,1.1230354698379585,1.7514644293750503,0.2276355337378057,62.0,0.5161290322580645,68.71386351629566,136.6183323383683,56.921416591526516,-0.6677982482638386,0.17069188160677023,-0.15429575246790508,0.010614558014419117,-0.8094882458216976,1.7514644293750503,0.24210925092357413,0.9841269841269841,0.5079365079365079,63.0
6,0,972.703125,True,True,66.18407445708377,191.53528683591523,138.31755911340724,0.13466820686531353,0.9308192935852202,1.1409399156465292,1.8923466459300897,0.3021448670171581,57.0,0.5964912280701754,68.41887428774434,126.46934613583069,62.30464935909976,-0.6426586281276213,0.17019195511810672,-0.15293647621817053,0.02261586646134781,-0.79374894618028,1.8923466459300897,0.29213045351542605,1.0,0.5666666666666667,60.0
6,0,1002.703125,True,True,65.96319018404907,156.8090647641513,126.96099449052772,0.17626156870859827,0.8864594102694963,1.183741529340816,1.847181202711308,0.31397858361777925,60.0,0.7166666666666667,65.91241469318544,58.943819323184385,43.84447392558708,-0.6326282110787618,0.17590992249195989,-0.16554618199163912,0.039998781078565825,-0.8055772897928115,1.847181202711308,0.31397858361777925,1.0,0.532258064516129,62.0
6,0,1032.703125,True,True,65.287616888637,147.29339036481724,136.29522694830104,0.17674942679662664,0.8841830977143976,1.1549254999338152,1.774206694646592,0.2736406472217606,62.0,0.7419354838709677,65.96385832856805,83.48475192684381,40.97183216411628,-0.6369383225975574,0.18002815098980637,-0.16401885728644702,0.021919342681906623,-0.7422501517679858,1.774206694646592,0.250738312380432,1.0,0.5714285714285714,63.0
6,0,1062.703125,True,True,65.0223642172524,150.60148006813182,139.44034486346132,0.15762433776967633,0.9063176369899605,1.1324081554133056,2.062429412059381,0.25369024788892264,58.0,0.5862068965517241,68.78679096572648,131.85945652446858,83.60899045911535,-0.6380371172718018,0.16821412101880812,-0.16743652391183045,0.030647793474194367,-0.6757366961750029,2.062429412059381,0.21181511398067096,0.9833333333333333,0.5166666666666667,60.0
6,0,1092.703125,True,True,66.85020242914979,174.63631179320384,141.6984888617012,,,,2.4559232477083675,0.23402962036593422,51.0,0.4117647058823529,77.65215527932199,209.29622265945355,99.38924811064909,-0.6543678400672265,0.15714836771127488,-0.20009181729844178,,,2.4559232477083675,0.19791537101468237,0.9444444444444444,0.3148148148148148,54.0
6,0,1122.703125,True,True,67.61816496756256,198.91219606728518,115.43369665036471,,,,2.451419401006442,0.23744168084069284,48.0,0.3333333333333333,72.9240597908166,182.21587396858936,62.20010331006892,-0.6389749504395594,0.15761885050405,-0.1861777841251433,,,2.451419401006442,0.23098307773416518,0.9056603773584906,0.37735849056603776,53.0
6,0,1152.703125,True,True,66.63145982648057,199.83605193376857,166.39641322825221,,,,2.0878495921559708,0.22240603592637032,54.0,0.3148148148148148,71.28972490094348,160.8042491136986,54.355863472057074,-0.644731352731454,0.15928190948442458,-0.13853538774082222,,,2.0878495921559708,0.1960436921486764,0.9642857142857143,0.4642857142857143,56.0
6,0,1182.703125,True,True,66.64462809917356,193.37691449929065,166.79753127734654,,,,2.2216924467532575,0.20655700494897508,51.0,0.39215686274509803,71.20520192814035,156.25844001537268,46.92231456667575,-0.657680169817157,0.17731023310032523,-0.15201820809930855,,,2.2216924467532575,0.18776315249063263,0.9818181818181818,0.41818181818181815,55.0
6,0,1212.703125,True,True,69.27161334240981,145.3373581005643,123.84050294816532,0.1643730285249795,0.9044157598674328,1.170982211318392,2.111678041763813,0.23178710303116778,60.0,0.5833333333333334,70.75441202246196,108.1361569872499,34.10490925308772,-0.6623540238793442,0.1975758270490672,-0.158211728205358,,,2.111678041763813,0.19154798407995005,0.9841269841269841,0.4444444444444444,63.0
6,0,1242.703125,True,True,69.60725075528701,141.12365728341638,97.33368985031878,0.19641308872790894,0.8713390525641159,1.2580317959343859,2.0233799806162445,0.3143497052262369,60.0,0.65,71.84193216158047,93.22891053354832,53.1787775305524,-0.6779654123101351,0.21736991312975407,-0.18575797894048568,,,2.0233799806162445,0.2839302638280827,1.0,0.3333333333333333,66.0
6,0,1272.703125,True,True,65.40499621498866,176.0413864978943,139.19410907075056,0.21886997137728845,0.8619073803920089,1.1962868421196955,2.2519677719428053,0.3290863312093635,54.0,0.5185185185185185,68.31460783236508,108.53703919000604,64.70828277903331,-0.6687455802721554,0.2044918482643401,-0.17986810832231456,,,2.2519677719428053,0.29046395695817706,1.0,0.2545454545454545,55.0
6,0,1302.703125,True,True,68.72108249672632,196.253829143551,160.07394642434363,,,,2.603163943389757,0.41125745268340624,51.0,0.3137254901960784,66.0923299803793,104.46744965332518,64.37568372548431,-0.6539403105093586,0.1891996268313028,-0.16934773048964719,,,2.603163943389757,0.4680160674372956,0.98,0.42,50.0
6,0,1332.703125,True,True,73.09934562760262,188.92204255907393,156.89206316858133,,,,2.775520413456308,0.3167294267407963,45.0,0.3333333333333333,73.34896987298279,102.71180946217204,58.085127329461656,-0.746799702757354,0.22379143921511496,-0.1906458454791377,,,2.775520413456308,0.3167294267407963,0.96,0.34,50.0
6,0,1362.703125,False,True,,,,,,,,,,,79.61767492888535,120.55158102837834,85.82143039764453,-0.7997240990077201,0.285958228989885,-0.18878612462916772,,,2.695027425337301,0.21638742852269588,0.9795918367346939,0.40816326530612246,49.0
6,0,1392.703125,True,True,70.37263286499694,162.82933167458484,150.6820431405149,0.3056282303827189,0.8103980220020467,1.171513248936135,2.520677901113774,0.32159703510044074,43.0,0.5116279069767442,73.7988686901656,137.3537850073049,71.69709162252134,-0.7415866606242938,0.28600538599084124,-0.25146194636296937,,,2.520677901113774,0.27543941296585567,0.9811320754716981,0.41509433962264153,53.0
6,0,1422.703125,True,True,70.30183077684315,200.98874490164778,158.57643070456592,0.2572296122802127,0.8376356288712209,1.160059360847961,1.3049783064684701,0.34884462864874133,49.0,0.5102040816326531,76.1890045451594,190.30963717071538,55.346121701937975,-0.7278819183705668,0.21832947724295054,-0.2480162471991458,,,1.3049783064684701,0.2853001931534836,0.9818181818181818,0.36363636363636365,55.0
6,0,1452.703125,True,True,67.56598240469208,160.68094882260473,144.3274987565482,0.2928733364871489,0.7767876438139012,1.2768250829227927,1.4947023290818973,0.29451604079040367,50.0,0.66,74.37729723600417,169.43390492521794,48.162586896557954,-0.7218157168628067,0.22765883967135184,-0.22036379353619007,,,1.4947023290818973,0.2622828786454638,0.9827586206896551,0.41379310344827586,58.0
6,0,1482.703125,True,True,74.72597299444004,137.9157542660234,114.21853351114213,0.28445731858613826,0.8140846555820404,1.2198525275364815,1.8150171802866584,0.4067158823696155,57.0,0.631578947368421,75.34430355525114,106.37372999854269,46.00040818365601,-0.7544207670489984,0.29526188316271496,-0.19303940977148668,,,1.8150171802866584,0.364978966539795,0.9836065573770492,0.36065573770491804,61.0
6,0,1512.703125,True,True,71.59960745829245,178.19233285814147,128.66205852883766,0.23669883486240648,0.8905521947475178,1.1343401774521285,1.8941249369201758,0.36490722211432,62.0,0.5645161290322581,73.7616729876453,128.3731864435029,34.48071944104584,-0.711468218541041,0.30107660211396103,-0.19303940977148668,,,1.8941249369201758,0.372422966163551,1.0,0.265625,64.0
6,0,1542.703125,True,True,71.93388429752066,165.8441904414581,129.28492010721757,0.1940168655770217,0.908831549117498,1.0835177310292758,1.81553842835504,0.30849256138251174,69.0,0.6521739130434783,73.57356667509671,123.77889813512125,50.3348343973893,-0.6786549641311456,0.28017188030842183,-0.1774360247440826,,,1.81553842835504,0.3264305081242622,1.0,0.2676056338028169,71.0
6,0,1572.703125,True,True,76.7504835589942,130.63526210325387,93.18323176196334,0.2378014835654287,0.861474689627763,1.1532119073039517,1.7815262825144775,0.4479126694937036,68.0,0.6617647058823529,77.62754887901941,113.0300973845603,63.01321773385991,-0.6978346693069105,0.27992622438023607,-0.17277419019906315,,,1.7815262825144775,0.4479126694937036,0.9861111111111112,0.3055555555555556,72.0
6,0,1602.703125,True,True,75.0,154.6652589612336,94.15322766731056,0.30282398390286763,0.8226629438876105,1.214028696297773,1.6902856716891825,0.41199542904957775,57.0,0.5614035087719298,76.4288434886262,107.48762278293945,36.21471937514983,-0.7487914753840692,0.2864436178933374,-0.22292494262070944,,,1.6902856716891825,0.41199542904957775,0.9836065573770492,0.3442622950819672,61.0
6,0,1632.703125,True,True,70.93975903614458,170.515732960915,153.09310892394862,0.29466304348869615,0.8292401554532638,1.197250970404379,1.6288460778281615,0.2543200928858699,56.0,0.5535714285714286,74.55305578921605,128.97843866981492,34.806165491258454,-0.7309976253055818,0.2861909494979947,-0.26970496498270485,,,1.6288460778281615,0.24942594087487532,1.0,0.3114754098360656,61.0
6,0,1662.703125,True,True,69.7029702970297,157.4397047351918,150.2451922307717,0.22295681743484327,0.8771670461362631,1.1373598104221994,1.78665739354742,0.2707119278803288,60.0,0.5,71.87327344883016,117.0366666161477,52.90267134288425,-0.7006416892418734,0.25238468815263465,-0.18921123926093383,,,1.78665739354742,0.24149192916916895,1.0,0.453125,64.0
6,0,1692.703125,True,True,70.18943170488534,144.23330862501626,140.71177878024284,,,,1.8736926023706,0.2480844187868474,61.0,0.36065573770491804,72.5300808207849,104.99729182511953,53.303287706775855,-0.6928855250830321,0.21909776876320106,-0.16235530194840497,,,1.8736926023706,0.23718654549777585,1.0,0.4603174603174603,63.0
6,0,1722.703125,True,True,71.71187194308581,153.72201857807227,156.64013793565172,,,,2.3659920905154914,0.3109359430718576,52.0,0.38461538461538464,74.35027685674822,114.65260397225421,74.679845171977,-0.7068806573815946,0.23868266860718235,-0.16184075645708773,,,2.3659920905154914,0.30904416811498175,0.9833333333333333,0.4,60.0
6,0,1752.703125,True,True,69.02927580893683,142.90862878679752,114.78185589179279,0.21505615110466897,0.8512380223432847,1.1987860557345622,2.3780318980731594,0.40547667384917835,45.0,0.6222222222222222,69.43258340054115,104.89500698932885,55.55672314444217,-0.7190858435930643,0.23032334448027453,-0.16175049840478004,,,2.3780318980731594,0.3583524257313455,1.0,0.4642857142857143,56.0
6,1,2440.703125,True,True,80.36753445635529,194.4516087953755,150.38716606116722,,,,1.9825787450958368,0.1418363662315193,54.0,0.24074074074074073,83.19029432128714,148.3476220711187,99.3246395458598,-0.6683526427921478,0.11118719667292033,-0.36435750967633973,0.05815055541249812,-0.4817108563072792,1.9825787450958368,0.14541220837052743,0.9629629629629629,0.5,54.0
6,1,2470.703125,False,True,,,,,,,,,,,82.21360420893943,210.14617132886954,132.87557514017863,-0.6913133259910209,0.13552511216998836,-0.35430398155100495,,,2.5625006662991607,0.11628603931620393,0.9183673469387755,0.3877551020408163,49.0
6,1,2500.703125,False,False,,,,,,,,,,,,,,,,,,,,,,,
6,1,2530.703125,False,False,,,,,,,,,,,,,,,,,,,,,,,
6,1,2560.703125,False,False,,,,,,,,,,,,,,,,,,,,,,,
6,1,2590.703125,False,False,,,,,,,,,,,,,,,,,,,,,,,
6,1,2620.703125,False,False,,,,,,,,,,,,,,,,,,,,,,,
6,1,2650.703125,False,False,,,,,,,,,,,,,,,,,,,,,,,
6,1,2680.703125,False,False,,,,,,,,,,,,,,,,,,,,,,,
6,1,2710.703125,False,True,,,,,,,,,,,76.11607473089468,92.1345891701793,60.10383234651083,-0.7253905781805358,0.1747935259273468,-0.19320622527496584,0.04587497102974439,-0.7518746894871245,2.437623655339213,0.1211789358885466,1.0,0.6136363636363636,44.0
6,1,2740.703125,True,True,76.11893583724569,178.54817887726446,150.45503896513404,,,,1.427581217100574,0.1878871542743024,49.0,0.20408163265306123,77.50066262423614,105.10549702758567,50.325417111797975,-0.6522505364547567,0.15784756404478884,-0.1966816417289779,0.08436210243733279,-0.6457405368192138,1.427581217100574,0.20786037787014028,0.9814814814814815,0.6481481481481481,54.0
6,1,2770.703125,True,True,83.9803171131766,144.29364781888842,137.70108402502382,,,,1.8984547016490116,0.11273088766071088,52.0,0.19230769230769232,85.6143436880904,121.25009654344387,118.22059401732056,-0.7011193265696081,0.16846707573588576,-0.26666158931315276,0.06979419039089427,-0.5254028483362297,1.8984547016490116,0.0940032244757447,0.9444444444444444,0.5555555555555556,54.0
6,1,2800.703125,True,True,84.44200109950522,181.1486889436675,158.12674982562774,,,,2.1059126061898534,0.10962655343404773,52.0,0.057692307692307696,83.55649240162325,151.8237837853581,127.66206087603807,-0.6906347727978395,0.09899292485040267,-0.18131822009414322,0.03637290459371131,-0.5601376150349355,2.1059126061898534,0.1409933383134229,0.9074074074074074,0.5185185185185185,54.0
6,1,2830.703125,True,True,76.48621041879468,181.33999464326664,151.32875016004064,,,,1.914234640340332,0.22246094261253932,55.0,0.12727272727272726,80.35346102997482,149.46203902293954,64.50748581206173,-0.5685541215668364,0.12433658063949529,-0.18789448765796962,-0.024899486382433597,-0.4633302235921539,1.914234640340332,0.1864521488856237,0.92,0.66,50.0
6,1,2860.703125,True,True,76.96202531645571,144.79959218598017,135.78631960691513,,,,1.9035318857535568,0.15681104587375425,53.0,0.1509433962264151,78.12092850630349,68.130696106546,57.21319902959637,-0.5712543408571684,0.12740722183956021,-0.16761372105509087,-0.024899486382433597,-0.4728314881375856,1.9035318857535568,0.14269538752993696,1.0,0.7959183673469388,49.0
6,1,2890.703125,True,True,77.31543624161074,122.73510043742972,136.66293503543673,,,,2.090462187847147,0.08436671262724234,49.0,0.08163265306122448,78.56760000379701,80.52166415358936,69.91672360634891,-0.5790520954864515,0.07638473614181572,-0.17628632481949721,0.009622071628501472,-0.5281833493635331,2.090462187847147,0.07767675651029259,0.9655172413793104,0.7586206896551724,58.0
6,1,2920.703125,False,True,,,,,,,,,,,77.91168547987945,81.30988786060337,87.0459598698074,-0.5838147489922231,0.07410777376871962,-0.30968489830479856,0.11003041259216273,-0.6220755542519016,2.056571384562159,0.07221975433918273,0.9622641509433962,0.6981132075471698,53.0
6,1,2950.703125,False,True,,,,,,,,,,,79.00489703218469,107.30996117780718,81.62529474301546,-0.659494489971095,0.1299633308055411,-0.3685654448867458,0.12505576727736709,-0.677598588438127,2.2281377750391087,0.2422250944430091,1.0,0.6304347826086957,46.0
6,1,2980.703125,False,False,,,,,,,,,,,,,,,,,,,,,,,
6,1,3010.703125,False,False,,,,,,,,,,,,,,,,,,,,,,,
7,0,100.640625,True,True,69.10025706940874,170.79732809579858,144.37280166075257,,,,2.4356541986050546,0.9388432088679134,45.0,0.4888888888888889,70.50916538636059,141.56738646331593,94.78977887554164,-0.6887944099729002,0.26750888091917213,-0.23838646887708206,,,2.4356541986050546,0.8214991886906069,1.0,0.32075471698113206,53.0
7,0,130.640625,True,True,67.39657333890514,161.07223725995195,136.44666185824434,0.2512498042386074,0.8419673948265474,1.2129719319406995,2.190370020378331,0.5298575752260168,51.0,0.5882352941176471,69.49188429494495,169.77480187982005,96.15498372492921,-0.7262844120416339,0.26739780191289664,-0.2212950217872962,,,2.190370020378331,0.4864395886435647,0.9824561403508771,0.43859649122807015,57.0
7,0,160.640625,True,True,70.0385829533497,101.15378516382596,77.78458443732252,0.24280442690084855,0.82780459330775,1.1749929069214216,2.188852659591407,0.4923000291389431,57.0,0.7017543859649122,72.70069530084318,140.49217432009598,63.39079907616978,-0.7793407266942219,0.310813473725579,-0.2235939339367266,,,2.188852659591407,0.48661501278790203,0.9682539682539683,0.36507936507936506,63.0
7,0,190.640625,True,True,74.98349834983497,87.63205488581828,66.23543650677048,0.24418341477743535,0.8141469228975491,1.1776247364917884,1.4393548512338243,0.30239709386372576,73.0,0.6986301369863014,75.04491530896657,72.77670245550398,48.1630367649342,-0.7729495009107501,0.3593025449683022,-0.2274427375246504,,,1.4393548512338243,0.30239709386372576,1.0,0.273972602739726,73.0
7,0,220.640625,True,True,74.60700618192523,83.36826828189994,57.78593003212304,0.24583662751496452,0.8144738443040154,1.1683539144759774,1.5783704918070713,0.30886469674822364,69.0,0.7391304347826086,75.3901252677462,83.99488117934577,53.84111120863688,-0.7650984071542951,0.34355565255531306,-0.21362754614349228,,,1.5783704918070713,0.2849001010630296,1.0,0.2777777777777778,72.0
7,0,250.640625,True,True,71.15294117647058,91.02076810230982,68.56195392069664,0.2104050746971288,0.849819140153753,1.1590571734161634,1.5846570476039261,0.30947936929796327,66.0,0.696969696969697,72.86798648079423,97.41006256056272,67.06023199733299,-0.7446212364620359,0.3084472132874502,-0.2069615707752217,,,1.5846570476039261,0.3264183580440501,0.9852941176470589,0.29411764705882354,68.0
7,0,280.640625,True,True,70.98591549295774,95.40352465858432,68.80294571443181,0.20975980141710643,0.8505809884192458,1.1776323600795415,1.5220886268734097,0.349645048047053,67.0,0.6865671641791045,72.18258446681638,94.70467446960564,67.84878243963493,-0.7271476001977575,0.28136769442751075,-0.19477460852004205,,,1.5220886268734097,0.37181856544808667,0.9848484848484849,0.3484848484848485,66.0
7,0,310.640625,True,True,72.38779174147217,101.7437345215956,54.23923424284307,0.26118487213533054,0.8050683749408308,1.1905551418643228,1.4012617020704823,0.4042584248752245,68.0,0.5441176470588235,73.30996322229537,95.34806203434663,50.47053037960366,-0.7497901902848948,0.29029416347605896,-0.1771495969676513,,,1.4012617020704823,0.4042584248752245,0.9846153846153847,0.4307692307692308,65.0
7,0,340.640625,True,True,71.1990111248455,106.5139832933012,58.46339666834283,,,,1.165030010188267,0.32999702126330266,63.0,0.38095238095238093,73.56590901659143,120.37018122995624,58.33737012583691,-0.755965345816906,0.2732172291697073,-0.15791584602992503,,,1.165030010188267,0.35306658509400973,1.0,0.47761194029850745,67.0
7,0,370.640625,True,True,69.14361001317522,63.67044294551474,46.66337363703132,0.2966717220746718,0.7813503821999515,1.3257126091031353,1.994713723824777,0.8738967992182469,45.0,0.5333333333333333,70.09457632571282,93.11469771722955,41.49446256712703,-0.7581307081829892,0.2732076961397582,-0.22226288765573676,,,1.994713723824777,0.7458118518075413,1.0,0.36363636363636365,55.0
7,0,400.640625,True,True,70.4881101376721,96.58319684187353,83.95209561739738,0.25495762827873236,0.8490694069330125,1.179980381122485,2.0615354973896096,0.45203927675433636,51.0,0.5294117647058824,71.09285944563939,80.8330757864107,45.415376740063785,-0.7732865787419585,0.28346721108904727,-0.2397611043337728,,,2.0615354973896096,0.40563945406821733,1.0,0.30357142857142855,56.0
7,0,430.640625,True,True,67.52378206976073,92.81107119744357,78.91595226524117,0.2607018323854544,0.8124453838532214,1.2633220672838088,1.6547400339243932,0.3152452123520909,64.0,0.515625,67.68697874924862,86.96046210801774,60.42430878092639,-0.7712711169283546,0.27907913573334536,-0.20535580680097074,,,1.6547400339243932,0.3152452123520909,1.0,0.3548387096774194,62.0
7,0,460.640625,True,True,70.88082901554404,112.67822900727057,66.29126073623883,0.3270921722989756,0.7530044976958332,1.3253688443758027,1.7761684037568888,0.6472838033662015,62.0,0.5806451612903226,72.03793085957945,115.74587129123134,55.065524719397935,-0.7550062380554325,0.2722459133941944,-0.1778120419470784,,,1.7761684037568888,0.6472838033662015,0.9848484848484849,0.42424242424242425,66.0
7,0,490.640625,True,True,71.37546468401487,185.4348869580273,78.5499804698778,0.30157159189119503,0.7795041911054406,1.1737749643761661,2.189174145560045,0.6575906071182113,54.0,0.6481481481481481,71.70154371432805,150.99935293193207,54.09967142214639,-0.7052578880393692,0.2581467458509099,-0.19689374281247352,,,2.189174145560045,0.6575906071182113,1.0,0.46551724137931033,58.0
7,0,520.640625,True,True,66.23345367027677,173.6411011380361,98.66664797121163,0.27329055943605146,0.8046093467871543,1.1621627226852715,1.7581019351759408,0.49272080519875905,50.0,0.66,65.01761896507553,117.5718767755728,44.5823294355472,-0.7339998613321619,0.24936676505669653,-0.20915848398541836,,,1.7581019351759408,0.5495598028745089,1.0,0.48148148148148145,54.0
7,0,550.640625,True,True,66.49915110356537,96.86709328897459,79.94409939312455,0.26473278049731414,0.8196269389203503,1.2131103280895712,1.5626727704174401,0.3453527815533916,55.0,0.7818181818181819,68.73092821216761,117.80457206412424,73.69268338554843,-0.786713334683471,0.3133152301171088,-0.23495988198046489,,,1.5626727704174401,0.3379952474036135,0.9833333333333333,0.43333333333333335,60.0
7,0,580.640625,True,True,69.51179374657158,91.52888933478789,43.397817176838345,0.2917201447652505,0.7812126202689885,1.18690915884854,2.4550015514927654,0.5229157748042655,46.0,0.8043478260869565,73.3214263126009,155.62898681329185,72.78280998187144,-0.7954708415131118,0.35399793145094915,-0.2629963842511413,,,2.4550015514927654,0.47595299497204363,1.0,0.32142857142857145,56.0
7,0,610.640625,True,True,63.452991452991455,187.90046007705112,165.95598105765734,0.27896783097744066,0.8210602220327846,1.1756744044702727,2.482536639214268,0.7237516303323768,43.0,0.6976744186046512,67.49996136266758,206.25798133086417,70.76245612308942,-0.7859591242549111,0.33470009339135265,-0.26051532799929733,,,2.482536639214268,0.5540129163801666,1.0,0.21568627450980393,51.0
7,0,640.640625,True,True,62.80715100798784,180.73039086793887,162.40660949615233,0.3046819229847273,0.7949741133037904,1.3383088128268603,2.024850076042835,0.4091047779923709,50.0,0.76,68.88389716606099,189.3842058301214,63.6618588059347,-0.7972500336271794,0.3199591966450048,-0.261533853021762,,,2.024850076042835,0.39967817518205295,1.0,0.2542372881355932,59.0
7,0,670.640625,True,True,67.11086837793555,186.18212827358823,140.97179460799953,0.3880569812852283,0.7118511082454033,1.3263879162694059,1.9492708337252402,0.4961968404631512,46.0,0.6956521739130435,75.89379714697434,192.49050044192225,69.79981387836392,-0.8123315819686162,0.35155243933516084,-0.2625523780442267,,,1.9492708337252402,0.43069309324367383,0.98,0.3,50.0
7,0,700.640625,True,True,69.49211908931699,140.39145780542057,117.34364597199117,0.3324170352990087,0.7839617223756296,1.2916191785933624,1.7065500372939968,0.7624030842551999,46.0,0.6304347826086957,77.49990541422822,179.6984463170061,48.216991716047126,-0.801007473287323,0.35155243933516084,-0.23736726654191773,,,1.7065500372939968,0.6818016022333966,0.98,0.34,50.0
7,0,730.640625,True,True,69.20191246781904,111.72705611694366,86.85931600835356,0.3323470709381862,0.7823662887001148,1.2541282555734963,1.422577134728064,0.41305305933981457,56.0,0.8035714285714286,72.4738240981545,115.61549524690201,62.97335562636433,-0.8140642162145642,0.3723251955786684,-0.26774702914194326,,,1.422577134728064,0.3704860723079468,1.0,0.31666666666666665,60.0
7,0,760.640625,True,True,71.72604635074369,84.5916245962072,72.67330623258798,0.30449670560068703,0.7951469897561826,1.1920334646432729,1.4111109796942114,0.27401454195423636,60.0,0.85,72.40413213801725,74.3745595662344,59.33777143695099,-0.8509311571010701,0.3886633063931515,-0.2927360086114021,,,1.4111109796942114,0.29049625523895606,1.0,0.3076923076923077,65.0
7,0,790.640625,True,True,74.18583256669733,117.35419212116003,78.09605945446168,0.2924270437582134,0.7881410324923592,1.2506112507968097,1.6421458921189205,0.3082987872585297,67.0,0.6865671641791045,74.38246807975567,76.58976536398887,45.04578753339783,-0.8103090441806438,0.34322685372123185,-0.2676439205510571,,,1.6421458921189205,0.3082987872585297,0.9710144927536232,0.2463768115942029,69.0
7,0,820.640625,True,True,68.67535616853591,146.49759309883623,88.91160462785497,0.2508530544099589,0.83389872444883,1.2639909788506825,1.6055911365271043,0.36691600510289774,63.0,0.746031746031746,68.94447367689932,122.26684349539485,47.72242228877508,-0.8001373233753273,0.3257398680383903,-0.251863984459053,,,1.6055911365271043,0.36691600510289774,0.9848484848484849,0.3333333333333333,66.0
7,0,850.640625,True,True,67.17557251908397,127.17877067182226,96.76678263409488,0.22550550660969265,0.8705537752869129,1.1869132803474607,1.3208334204446845,0.6009536683114337,61.0,0.7213114754098361,70.31832430328613,144.67408804548373,72.78673322341568,-0.7787369729551697,0.2934472426372059,-0.24886272161961875,,,1.3208334204446845,0.5745988019657189,1.0,0.45454545454545453,66.0
7,0,880.640625,True,True,70.32967032967034,106.52693221967671,83.79321887893191,0.2740336882375494,0.7938329780107511,1.2638155822206891,1.2497290571261355,0.6134805969946581,65.0,0.5076923076923077,73.48915734528597,129.903952062886,69.84581889630418,-0.7435903571474203,0.2685743482254065,-0.20317032152321837,,,1.2497290571261355,0.5858574597193565,1.0,0.43478260869565216,69.0
7,0,910.640625,True,True,70.0,78.4196632050211,55.36935868463298,,,,1.2065891899627608,0.40177781662280976,65.0,0.4461538461538462,71.67201051479982,101.918068809772,45.972950259333054,-0.8111317190651186,0.3004123722686141,-0.19815593121456823,,,1.2065891899627608,0.3422194170434561,1.0,0.4057971014492754,69.0
7,0,940.640625,True,True,71.58699808795411,122.42869225421904,83.9088827528928,0.3545534662575539,0.7664472205747017,1.2256830390196027,1.87642203167194,0.9304856162250509,47.0,0.5319148936170213,74.40174392863341,134.05359872162373,63.619607802252915,-0.8347738696104641,0.3115414119329054,-0.2551873959958085,,,1.87642203167194,0.8751295697906831,0.9818181818181818,0.38181818181818183,55.0
7,0,970.640625,True,True,67.61263593992749,153.7575549659697,96.7039162520229,0.3463919077097615,0.7854326986043654,1.2034578402497038,1.8590586392514004,1.0434236234491887,44.0,0.75,69.09428391709523,103.78403566716257,63.326670249925705,-0.887997127411932,0.350892402755456,-0.2858954366981716,,,1.8590586392514004,1.1275526651026404,0.9777777777777777,0.3111111111111111,45.0
7,0,1000.640625,True,True,72.33667334669339,156.27818316594735,104.46217553461274,0.35646813576761593,0.7591430118145431,1.1827923637879534,1.363132892170484,0.44724781695535964,58.0,0.7413793103448276,73.5289535384501,119.93261819838892,63.09127751516223,-0.8629508107049824,0.4020016912817874,-0.2800704444208225,,,1.363132892170484,0.44724781695535964,0.9491525423728814,0.3050847457627119,59.0
7,0,1030.640625,True,True,76.00950118764845,161.43316404655405,125.1524948718812,0.33453664437008124,0.7696200756836276,1.1661046411764127,1.2293910716897516,0.3735149168220837,61.0,0.5901639344262295,79.96007293857066,170.2085276760489,54.788045351650844,-0.8207483412784744,0.38002606734043215,-0.2690770673163165,,,1.2293910716897516,0.3313609654074219,0.9692307692307692,0.35384615384615387,65.0
7,0,1060.640625,True,True,76.37860082304528,131.70065123545868,102.21599199678279,,,,1.1731392617016954,0.3011538170850548,66.0,0.48484848484848486,80.29514089034303,143.92704017861757,40.90601314762418,-0.8981219607397415,0.39055830115894385,-0.27203586332076396,,,1.1731392617016954,0.26412479401110966,1.0,0.2916666666666667,72.0
7,0,1090.640625,True,True,76.92821368948248,123.30993551558343,78.06119843770406,,,,1.4201237368247723,0.3739739213257881,67.0,0.43283582089552236,79.56363204508351,103.13055791417287,33.52761378502223,-0.7961627282765373,0.30122848881842224,-0.2552313142875773,,,1.4201237368247723,0.3040274937276493,1.0,0.3194444444444444,72.0
7,0,1120.640625,True,True,69.69555035128805,146.21214430495428,103.58026230241148,0.17031001708462776,0.8866237529955254,1.0500172033594501,1.4248166556321091,0.3906787229059924,65.0,0.5846153846153846,71.00118011597982,119.3414157724064,46.90763355463692,-0.7001361122111454,0.2512339249284079,-0.22138164139500213,,,1.4248166556321091,0.3608970024756009,0.9848484848484849,0.42424242424242425,66.0
7,0,1150.640625,True,True,66.3157894736842,107.58596926834902,107.15958059230775,0.16428939923037955,0.8881401119956347,1.068051669412831,1.1743164524421648,0.24469506372940014,64.0,0.71875,67.71106255206746,81.0474821464202,50.78630553689457,-0.719631449707375,0.26827013193724697,-0.21530861658476413,,,1.1743164524421648,0.2242423060884542,1.0,0.43548387096774194,62.0
7,0,1180.640625,True,True,69.8862528436789,106.53453057268584,81.95279569995898,0.23614345807406717,0.8243578608071049,1.1976133536619364,1.5212452703682187,0.4043811109038903,60.0,0.5833333333333334,71.15478185376492,110.1684431550337,55.77688553905702,-0.7440184006781735,0.2774067326039354,-0.21884895315308442,,,1.5212452703682187,0.35663221281748414,0.9848484848484849,0.4393939393939394,66.0
7,0,1210.640625,True,True,65.84276933031381,137.95453121511818,106.48733661352675,0.2593628188762977,0.8451153077477627,1.2021545486551304,1.4707900833982792,0.5669943887543824,57.0,0.7192982456140351,67.04660211117047,138.90099292697263,71.88864062846713,-0.7840779004914414,0.34507248905335025,-0.2610072045245967,,,1.4707900833982792,0.5065324218876225,1.0,0.49206349206349204,63.0
7,1,3096.640625,False,False,,,,,,,,,,,,,,,,,,,,,,,
7,1,3126.640625,False,False,,,,,,,,,,,,,,,,,,,,,,,
7,1,3156.640625,False,False,,,,,,,,,,,,,,,,,,,,,,,
7,1,3186.640625,False,False,,,,,,,,,,,,,,,,,,,,,,,
7,1,3216.640625,False,False,,,,,,,,,,,,,,,,,,,,,,,
7,1,3246.640625,False,False,,,,,,,,,,,,,,,,,,,,,,,
7,1,3276.640625,False,False,,,,,,,,,,,,,,,,,,,,,,,
7,1,3306.640625,False,False,,,,,,,,,,,,,,,,,,,,,,,
7,1,3336.640625,False,False,,,,,,,,,,,,,,,,,,,,,,,
7,1,3366.640625,False,False,,,,,,,,,,,,,,,,,,,,,,,
7,1,3396.640625,False,False,,,,,,,,,,,,,,,,,,,,,,,
7,1,3426.640625,False,True,,,,,,,,,,,110.44586179533245,121.5766831616075,136.54905038083555,-1.2588787714858114,0.3325267634575703,-0.8221350567189447,,,2.1234041054783126,0.202981077932606,0.9824561403508771,0.2631578947368421,57.0
7,1,3456.640625,False,True,,,,,,,,,,,107.74108386087691,95.86670706705054,118.49645613125429,-1.1857492040617021,0.30918966519275864,-0.7728798851317134,,,2.2739808855953236,0.17428264634784132,0.9322033898305084,0.2033898305084746,59.0
7,1,3486.640625,False,False,,,,,,,,,,,,,,,,,,,,,,,
7,1,3516.640625,False,False,,,,,,,,,,,,,,,,,,,,,,,
7,1,3546.640625,False,False,,,,,,,,,,,,,,,,,,,,,,,
7,1,3576.640625,False,False,,,,,,,,,,,,,,,,,,,,,,,
7,1,3606.640625,False,False,,,,,,,,,,,,,,,,,,,,,,,
7,1,3636.640625,False,False,,,,,,,,,,,,,,,,,,,,,,,
7,1,3666.640625,False,False,,,,,,,,,,,,,,,,,,,,,,,
8,0,158.53125,True,True,63.444413329599556,135.91724520261852,137.5,,,,2.3220796477437666,0.1435691639905565,61.0,0.01639344262295082,64.38371091655601,116.6466525955632,90.64308653421106,-0.4331513094249298,-0.09671968259935268,-0.17187290355114532,0.02285781813232415,-0.16591001282382858,2.3220796477437666,0.15147959724844817,1.0,0.8305084745762712,59.0
8,0,188.53125,True,True,65.3061224489796,96.52496219253955,128.96980405814492,,,,2.3631687001159065,0.17576966230615942,62.0,0.0,66.02085677535655,96.73184023316271,75.21653978439493,-0.5282816532991061,-0.07347182358776067,-0.1266139145276806,0.05745306345564401,-0.3698892204635049,2.3631687001159065,0.1609958287701587,1.0,0.9206349206349206,63.0
8,0,218.53125,True,True,66.33165829145727,77.11574530146665,88.30544469340495,,,,2.5903599073177848,0.47460225900621494,58.0,0.0,67.3198399593754,87.45136490622356,73.2331934163929,-0.5518952412857536,-0.060836319175188794,-0.13250389479500016,0.06466705164018069,-0.41458106078437496,2.5903599073177848,0.42009195036364094,0.9841269841269841,0.7619047619047619,63.0
8,0,248.53125,True,True,65.78680203045685,105.85631735107113,89.9761253055498,,,,2.5850356157336005,0.46802105003622224,57.0,0.017543859649122806,66.86216201454336,108.45962476463893,83.73290037963075,-0.5510786643522951,-0.03388485309228734,-0.13051848481771167,0.061909500489237566,-0.4149694850343386,2.5850356157336005,0.4131823840171196,0.967741935483871,0.6935483870967742,62.0
8,0,278.53125,True,True,65.17836593785961,103.45298448700952,96.55779626145122,,,,2.3069833488841844,0.18754600333446939,61.0,0.01639344262295082,66.10466305863483,91.39447870766244,66.16317721358676,-0.5479565412428131,-0.037088101995201996,-0.11642689314423207,0.06227270846837499,-0.44782944529517743,2.3069833488841844,0.17220734752964278,0.9692307692307692,0.8307692307692308,65.0
8,0,308.53125,True,True,66.78260869565217,75.56233272060389,79.06337491281387,,,,2.4237416712248723,0.15900803665721905,58.0,0.0,68.81205053884243,86.33459258174157,53.14723150735328,-0.5624339434368346,-0.04593478985263058,-0.1271492765340665,0.07018765052318993,-0.42458091972526113,2.4237416712248723,0.16756728988197253,0.9846153846153847,0.6923076923076923,65.0
8,0,338.53125,True,True,68.8348271446863,44.66517299385986,57.59016720318293,,,,2.346338359340799,0.22287812814005592,59.0,0.0,69.8882693720081,62.06556111855243,38.491625537021726,-0.5911831197679035,0.06496414868077921,-0.10664606214337147,0.07309392272996437,-0.56667673503762,2.346338359340799,0.2050526248218483,1.0,0.5692307692307692,65.0
8,0,368.53125,True,True,68.91220320265047,34.993949618696455,41.84430719849326,,,,2.319236659234292,0.20111248406003515,66.0,0.0,68.91769336521973,34.647637638445204,39.038364141424324,-0.5780098070567414,0.052790189328155594,-0.11437410797287509,0.08172359040910876,-0.5286865656219255,2.319236659234292,0.20111248406003515,1.0,0.5588235294117647,68.0
8,0,398.53125,True,True,68.98903775883069,46.11544907602379,44.53209159715659,,,,2.4664781462990497,0.27044867744970574,62.0,0.03225806451612903,69.56393499212315,78.22614852911835,41.81538307279224,-0.5815873044928349,0.0034526975099726234,-0.10870274286375531,0.08846887024218841,-0.5462343039554349,2.4664781462990497,0.24609420232200158,1.0,0.6060606060606061,66.0
8,0,428.53125,True,True,70.5666156202144,106.35717633678198,59.682066976519366,,,,2.5542343102762883,0.30501756484852055,56.0,0.16071428571428573,73.13815075773583,139.78656361640978,44.759484728900276,-0.6049592246318505,0.03881719560972516,-0.06731522023603287,0.07277649650756922,-0.5902843453291664,2.5542343102762883,0.28910145379658736,0.9824561403508771,0.5789473684210527,57.0
8,0,458.53125,True,True,70.9796672828096,110.94670664585418,103.5007934899476,,,,2.3449513391315726,0.23814739044465294,57.0,0.15789473684210525,73.80391840797407,130.52318460566636,50.44895613892235,-0.6304337822943764,0.03841621178887959,-0.10645322735759294,0.07327115313742838,-0.6417254410476771,2.3449513391315726,0.235369222057248,0.953125,0.546875,64.0
8,0,488.53125,True,True,70.3030303030303,100.4046938187396,113.02044840238192,,,,2.2401660367901104,0.19484522297091775,63.0,0.07936507936507936,72.47867638982424,118.28796024847755,56.22674518641832,-0.6179258870394604,0.026977033748711014,-0.10758820798675157,0.0652619026970043,-0.5531413123283097,2.2401660367901104,0.18116298195784766,0.9855072463768116,0.6231884057971014,69.0
8,0,518.53125,True,True,68.37988826815642,92.77474763651804,98.63702971155989,,,,2.2263359792496242,0.3211520336989941,58.0,0.05172413793103448,72.00866091735588,136.1328426005501,62.35823587253464,-0.5823891388314608,0.0017822153669367503,-0.11021582200343388,0.05339359608437736,-0.5004608081563174,2.2263359792496242,0.24365435202272498,0.9846153846153847,0.6923076923076923,65.0
8,0,548.53125,True,True,70.0979519145147,114.1540832629729,92.6585774721729,,,,2.5688724523558437,0.4938550415619421,51.0,0.09803921568627451,71.26738677476732,114.05024749437143,69.31054480292445,-0.607330147993052,0.0017822153669367503,-0.1275814769936993,0.07010546308242067,-0.5421435030521415,2.5688724523558437,0.4487637744732947,0.9655172413793104,0.7413793103448276,58.0
8,0,578.53125,True,True,71.96605374823196,93.70463343552399,108.42463665716906,,,,2.485161191764168,0.3240398879168197,60.0,0.08333333333333333,74.59145270256096,111.01857476264192,63.710840011853776,-0.5886342916894924,-0.006867857162478629,-0.1466701551339342,0.07478203043569749,-0.4335854908666442,2.485161191764168,0.3147037396662151,0.9836065573770492,0.639344262295082,61.0
8,0,608.53125,True,True,73.96468699839487,90.62096657203877,100.29254084925758,,,,2.329993116150158,0.14525495204132782,66.0,0.015151515151515152,76.38878088916265,87.47270520375892,49.66295820860324,-0.6145984151892756,0.012438851827111227,-0.1323424534550158,0.06234040087689152,-0.5071358995829063,2.329993116150158,0.12821688179950158,1.0,0.6865671641791045,67.0
8,0,638.53125,True,True,72.18045112781954,127.09471715862006,111.90040834996488,,,,2.677203041034766,0.39230500406226904,62.0,0.11290322580645161,73.93496368936889,72.14126214484358,62.54760380818601,-0.6146206380354521,-0.002903004367510314,-0.10653286715305857,0.07599340957849131,-0.5817272159547231,2.677203041034766,0.3493745488265268,1.0,0.7419354838709677,62.0
8,0,668.53125,True,True,68.05063291139241,130.00823369280147,133.42052317928747,,,,2.469466974920254,0.4111843670472501,61.0,0.09836065573770492,68.35298858544328,74.18082881234551,67.15004495452084,-0.5708055211926962,-0.017194029973880632,-0.1507617541357026,0.04949983131436301,-0.4461587302670132,2.469466974920254,0.4111843670472501,1.0,0.6666666666666666,60.0
8,0,698.53125,True,True,67.12541620421754,101.34548504037878,112.34410701810944,,,,2.2094547570196093,0.14730347031824617,65.0,0.03076923076923077,67.33316252503867,64.13697623802075,59.833588823875544,-0.54560877028601,-0.039984013992700594,-0.15536103478246788,0.025995701871195955,-0.3456931897717224,2.2094547570196093,0.14730347031824617,0.9846153846153847,0.5692307692307692,65.0
8,0,728.53125,True,True,68.70561923399497,70.49096550340991,84.8190599657161,,,,2.1471786973209444,0.15760025004266467,66.0,0.030303030303030304,68.73466491311788,52.63979480235765,55.82862003864125,-0.540965281330906,-0.044933570643942836,-0.14508440814913903,0.08672640827966877,-0.4165346681583924,2.1471786973209444,0.15760025004266467,0.9850746268656716,0.6119402985074627,67.0
8,0,758.53125,True,True,69.98561151079136,44.66511745615338,62.5,,,,2.864151900542175,0.4434920728118406,44.0,0.045454545454545456,69.88493003914914,33.91297700356707,42.9630117609321,-0.5744217850057449,-0.035066535185463085,-0.15242249554652487,0.08672640827966877,-0.47553102399574143,2.864151900542175,0.4434920728118406,0.98,0.62,50.0
8,0,788.53125,True,True,71.26948775055679,71.07800878846658,99.7155044021832,,,,3.41509524350081,0.2895443228854793,32.0,0.0625,71.4897684977208,35.659795872110095,43.51865391712744,-0.5916223141766609,0.04924811710348779,-0.15005975466134822,,,3.41509524350081,0.2895443228854793,0.975,0.45,40.0
8,0,818.53125,True,True,71.11111111111111,131.13834536473303,116.90132741166697,,,,2.7012502530696647,0.22447345879622368,58.0,0.05172413793103448,71.25311443422724,104.10192638892457,60.49992572577401,-0.577023850269184,0.03126987254739551,-0.1465816092673112,0.06124224548190615,-0.4433022156210478,2.7012502530696647,0.22447345879622368,1.0,0.5636363636363636,55.0
8,0,848.53125,True,True,71.14247904719895,149.69036000398077,113.7517170200081,,,,2.9143826761384757,0.21626650659330102,53.0,0.1509433962264151,75.11268110086904,114.66993559317953,79.34852436973625,-0.5997961886409867,-0.018632844198677622,-0.16072826726630457,0.07058759156811169,-0.47932261214617655,2.9143826761384757,0.1796771060279254,0.9607843137254902,0.5882352941176471,51.0
8,0,878.53125,True,True,76.53864851725814,120.11461196549715,109.94844263507686,,,,3.0410425574075575,0.19725323695525823,52.0,0.17307692307692307,80.70068874180753,125.84362384253656,78.68014255868896,-0.6224644868201628,0.018672196061165987,-0.1553124775378411,0.0665675476518453,-0.4854616809468528,3.0410425574075575,0.1520247948194045,0.9615384615384616,0.5769230769230769,52.0
8,0,908.53125,True,True,76.87687687687688,86.75459014684243,89.38711774177429,,,,2.873063333063119,0.10927808629269813,65.0,0.1076923076923077,77.82159045654652,89.86141247045975,58.517850824287,-0.5769575185249316,0.02399430592352566,-0.098303969695892,0.060435562997660716,-0.5670775862945149,2.873063333063119,0.10927808629269813,0.9846153846153847,0.6615384615384615,65.0
8,0,938.53125,True,True,75.19173239053576,66.5152966971765,81.79772877636037,,,,1.8817151641076812,0.178949763578646,73.0,0.0547945205479452,76.47007073599458,68.59697756442525,41.469441309420844,-0.5869916013679568,-0.006219683396592028,-0.0989571971548795,0.07238465997091914,-0.5101905924159311,1.8817151641076812,0.178949763578646,1.0,0.7464788732394366,71.0
8,0,968.53125,True,True,75.93860684769776,76.70218977236027,90.87060018412214,,,,2.089985541513966,0.2152297135525129,70.0,0.05714285714285714,76.10867306654536,43.36195799655135,38.15941579731949,-0.5714363151905695,-0.02186476370242734,-0.15675432736750716,0.07238465997091914,-0.433338772762082,2.089985541513966,0.2152297135525129,1.0,0.6619718309859155,71.0
8,0,998.53125,True,True,74.69908814589667,109.31187059941593,107.07815619486034,,,,2.1388284875389303,0.22034700146447228,68.0,0.058823529411764705,75.3475091005742,81.54130620396923,49.63565021194166,-0.5780700000000538,0.0265471300126879,-0.13580370173256093,0.06841252511247645,-0.4893659728665417,2.1388284875389303,0.19269618383866122,1.0,0.6086956521739131,69.0
8,0,1028.53125,True,True,69.77914453452614,95.92087913528805,107.23349960483432,,,,2.082770890593049,0.16175800023795642,67.0,0.014925373134328358,71.18228718061923,87.56176297497159,67.78095642090027,-0.6117971778759608,-0.022986555411343427,-0.1350055013522803,0.07012559868335094,-0.494435936311979,2.082770890593049,0.1436819198227231,1.0,0.7384615384615385,65.0
8,0,1058.53125,True,True,69.63402571711177,94.01093037227788,134.3186284225927,,,,2.273789873032724,0.16016681650422873,60.0,0.05,69.9649045444317,85.42949576529989,68.90009225874981,-0.5905328257687839,-0.022928761655795757,-0.17524795082146083,0.04992799897589821,-0.4620927239383599,2.273789873032724,0.16016681650422873,0.984375,0.703125,64.0
8,0,1088.53125,True,True,71.52106430155212,116.74780801754635,141.6874547072837,,,,2.336690792821358,0.1765640057389106,51.0,0.0784313725490196,72.3055437324217,121.50357381940687,64.60139915332252,-0.5990235076222472,0.02353659942467116,-0.17623455697210544,0.028564608765109557,-0.46781189453276545,2.336690792821358,0.1966083017740204,1.0,0.6101694915254238,59.0
8,0,1118.53125,True,True,72.80505590666019,133.534605671244,141.685072531392,,,,2.338982996277006,0.25955884591568656,48.0,0.125,75.58367519842999,135.2985700890441,70.33917224633147,-0.5663187112844016,0.02475827892037228,-0.20533273159522705,0.00015806628172062662,-0.4061978106932048,2.338982996277006,0.20604960791284202,0.9830508474576272,0.5932203389830508,59.0
8,0,1148.53125,True,True,71.51147682979645,130.97400845768166,143.94942009912717,,,,2.1445114688411717,0.26315325362061404,53.0,0.11320754716981132,72.92812359932798,84.52859887642148,75.3443454060866,-0.5514293561292611,0.027996091865609758,-0.14938422345497157,0.03545580264094208,-0.481602419485562,2.1445114688411717,0.28227246128398925,1.0,0.6724137931034483,58.0
8,0,1178.53125,True,True,70.41257367387034,124.0719914832388,110.89898098889367,,,,1.781183913299442,0.19267744248991073,62.0,0.08064516129032258,72.00616354962543,60.15093040374029,57.16903374849091,-0.5821227545889711,0.031327675459438445,-0.11218294550365479,0.04375223526348994,-0.5285812624791975,1.781183913299442,0.1729510521473931,1.0,0.6721311475409836,61.0
8,0,1208.53125,True,True,71.26338329764454,156.91201197269686,117.1875,,,,2.1588700116339163,0.2257349148495259,57.0,0.07017543859649122,73.83090341410694,110.716885404245,63.24671798978826,-0.5880067141344596,0.05401961586108983,-0.13854450896705628,0.015110897032139217,-0.5148235602288767,2.1588700116339163,0.23442225719156698,0.967741935483871,0.5806451612903226,62.0
8,0,1238.53125,True,True,73.01247771836007,153.85561457242525,155.98936595699936,,,,2.387842132009841,0.34807909988575125,40.0,0.1,73.68879011168184,147.09260891960886,70.89543736189384,-0.6321658067407399,0.038469505223532284,-0.20855248155529715,0.03311572755615792,-0.5016652798009457,2.387842132009841,0.319162621259758,0.96,0.54,50.0
8,1,3292.53125,False,False,,,,,,,,,,,,,,,,,,,,,,,
8,1,3322.53125,False,False,,,,,,,,,,,,,,,,,,,,,,,
8,1,3352.53125,False,False,,,,,,,,,,,,,,,,,,,,,,,
8,1,3382.53125,False,False,,,,,,,,,,,,,,,,,,,,,,,
8,1,3412.53125,False,False,,,,,,,,,,,,,,,,,,,,,,,
8,1,3442.53125,False,False,,,,,,,,,,,,,,,,,,,,,,,
8,1,3472.53125,False,False,,,,,,,,,,,,,,,,,,,,,,,
8,1,3502.53125,False,False,,,,,,,,,,,,,,,,,,,,,,,
8,1,3532.53125,False,False,,,,,,,,,,,,,,,,,,,,,,,
8,1,3562.53125,False,False,,,,,,,,,,,,,,,,,,,,,,,
8,1,3592.53125,False,False,,,,,,,,,,,,,,,,,,,,,,,
8,1,3622.53125,False,False,,,,,,,,,,,,,,,,,,,,,,,
8,1,3652.53125,False,False,,,,,,,,,,,,,,,,,,,,,,,
8,1,3682.53125,False,False,,,,,,,,,,,,,,,,,,,,,,,
8,1,3712.53125,False,False,,,,,,,,,,,,,,,,,,,,,,,
8,1,3742.53125,False,False,,,,,,,,,,,,,,,,,,,,,,,
8,1,3772.53125,False,False,,,,,,,,,,,,,,,,,,,,,,,
8,1,3802.53125,False,False,,,,,,,,,,,,,,,,,,,,,,,
8,1,3832.53125,False,False,,,,,,,,,,,,,,,,,,,,,,,
8,1,3862.53125,False,True,,,,,,,,,,,97.2700335802653,90.38659063643094,72.87751742045101,-0.7726976424389438,0.13364057156383902,-0.27889743018493257,,,1.965767572052923,0.11264567579432395,1.0,0.2962962962962963,54.0
8,1,3892.53125,False,False,,,,,,,,,,,,,,,,,,,,,,,
9,0,75.25,False,True,,,,,,,,,,,77.35049385673031,149.5568705623884,100.1992170977741,-0.7071351977127972,0.27117092723132197,-0.22918077120022573,,,2.541224536038024,0.2152891114220373,0.9782608695652174,0.30434782608695654,46.0
9,0,105.25,True,True,74.34488968932914,104.14157366645351,83.21487793111822,0.312229408021983,0.8073653198806257,1.191089832808696,2.407338432901589,0.21577661920402844,54.0,0.7222222222222222,76.54856091305227,118.38278809317669,68.60976108396233,-0.7518736673017509,0.32300887038047255,-0.22787574207750738,,,2.407338432901589,0.2078863361780458,1.0,0.2033898305084746,59.0
9,0,135.25,True,True,76.55696202531645,78.18578024832209,55.22333046883514,0.2550544569904759,0.838299713986409,1.1891837997739,2.002458015561567,0.3029134180841131,69.0,0.8405797101449275,76.3697104380053,77.08952374107076,37.29107593332119,-0.7196438674098332,0.3108082255530289,-0.20415395253952873,,,2.002458015561567,0.2916880742349954,0.9859154929577465,0.14084507042253522,71.0
9,0,165.25,True,True,75.81718464351006,89.32962296658287,75.37476895003283,0.23728287016433272,0.8510757990533728,1.2014871439068378,2.1874857854125542,0.2831283291747347,62.0,0.8225806451612904,76.66502330554587,100.13148980930345,62.047688408392304,-0.712548263641704,0.30501089582311713,-0.19161612940791534,,,2.1874857854125542,0.32480295275010873,0.9848484848484849,0.13636363636363635,66.0
9,0,195.25,True,True,71.45135566188199,132.87157299706467,81.0341961660376,0.25744561114176906,0.8418064612195448,1.1752642135349656,2.2701150287933176,0.3315489338926262,49.0,0.7346938775510204,74.0455293208731,152.76654342927242,85.87942658931084,-0.7577161498221969,0.3332171885593277,-0.18721332168903818,,,2.2701150287933176,0.3496216394117602,0.9818181818181818,0.2727272727272727,55.0
9,0,225.25,True,True,73.90188679245283,131.87947209218623,111.65938306611113,0.25410096088702977,0.8352064322193702,1.198194553559322,2.0052183282441516,0.39017355931280584,60.0,0.7833333333333333,76.1733911945179,100.62916942810008,46.18982850197626,-0.7180680697586105,0.3479729854132491,-0.18129985316297817,,,2.0052183282441516,0.3526635620642531,0.9824561403508771,0.3508771929824561,57.0
9,0,255.25,True,True,75.8267020335986,93.89593646635468,89.89030613529344,0.23263819076002645,0.8531846927068254,1.1754678227535202,1.9101834660138544,0.30950434328309157,70.0,0.8714285714285714,76.38525215859086,44.38647967778776,30.112034418964793,-0.7073349028168101,0.32398233614344696,-0.19408944011879353,,,1.9101834660138544,0.30950434328309157,1.0,0.26865671641791045,67.0
9,0,285.25,True,True,75.78947368421053,147.10152773943867,91.50184323922917,0.23426910874243043,0.8409782797218455,1.1838195740484359,2.28589491363484,0.18039856441919924,67.0,0.7313432835820896,78.95412862108867,66.56905184822371,33.778452289713066,-0.7039016238297868,0.2857238649342385,-0.1803194556223663,,,2.28589491363484,0.1809273945404819,1.0,0.29850746268656714,67.0
9,0,315.25,True,True,75.47459252157239,188.77157116077117,128.21389192803304,0.2945948150623732,0.78525055297555,1.1880598236635593,2.317377607844366,0.3306169768069758,50.0,0.56,84.22626203492268,128.31601386784484,36.63591631254678,-0.7259345767703032,0.26222299751932576,-0.16743918715390055,,,2.317377607844366,0.30891466548466556,1.0,0.32727272727272727,55.0
9,0,345.25,True,True,75.32693984306889,62.09821931054387,58.30256170978319,0.2662270868433439,0.8383282666736598,1.1398394921693995,2.0929144889594804,0.2816681935634243,52.0,0.8076923076923077,75.89867116916128,78.24468411366823,33.45568334959792,-0.7633492709776439,0.31122096619482614,-0.2560994089108121,,,2.0929144889594804,0.2816681935634243,1.0,0.17857142857142858,56.0
9,0,375.25,True,True,75.0719291774253,97.69332115676758,71.22288714154865,0.2434742999849442,0.8609137432400417,1.154727331846817,2.157743648244621,0.3086528510329809,61.0,0.7868852459016393,74.28233202789976,47.72624763294547,38.19921973261939,-0.7518506942556168,0.3199500488749661,-0.25554124224593877,,,2.157743648244621,0.34101410605659366,1.0,0.1774193548387097,62.0
9,0,405.25,True,True,73.44262295081967,144.08386284578515,110.89898098889367,0.2394565118490291,0.8678841791054435,1.1202574185923797,2.45652705352863,0.27748181339603883,48.0,0.5833333333333334,74.18681172880487,73.72997571796144,61.7585263364578,-0.7117332720344186,0.32984474219829585,-0.23109815103468806,,,2.45652705352863,0.24770849861670702,1.0,0.2641509433962264,53.0
9,0,435.25,True,True,75.18624641833811,151.58626762346316,139.45272882803766,0.25467973228101937,0.8659760628985153,1.0995661994763357,2.3475851825180882,0.2290648683054933,54.0,0.6111111111111112,75.61760421828507,107.88397994435792,74.4750888949045,-0.7148757086724946,0.32679173397314293,-0.2335242759961455,,,2.3475851825180882,0.2290648683054933,0.9818181818181818,0.23636363636363636,55.0
9,0,465.25,True,True,79.6079909536374,106.69516442826139,86.93528952742604,0.21877119655654398,0.8699256887070391,1.1552349281555412,2.013454377052587,0.48284965089826254,64.0,0.515625,78.16859035715788,103.72590630364292,58.08098576574524,-0.6995785926140992,0.24813802504743712,-0.17658779043918055,,,2.013454377052587,0.5511551404976274,0.9841269841269841,0.23809523809523808,63.0
9,0,495.25,True,True,77.02325581395348,59.81571168244304,36.767963804288,0.21533039005619345,0.8610078011681097,1.1749273926774308,1.6032635631076122,0.45899607124909686,72.0,0.6388888888888888,76.99786314985818,63.94968106424442,33.59484132253842,-0.7028558278111214,0.27258277669018394,-0.1835062073523564,,,1.6032635631076122,0.45899607124909686,1.0,0.2318840579710145,69.0
9,0,525.25,True,True,74.32933478735006,54.76357348994247,60.34221603251148,0.1947747170124243,0.8994643734090079,1.0778755897253463,1.4704119114561687,0.31270900115093325,72.0,0.9027777777777778,74.7771649276351,33.258405205566774,26.201291432385133,-0.7059071083358535,0.31171811914837577,-0.19520623509631124,,,1.4704119114561687,0.31270900115093325,1.0,0.25,72.0
9,0,555.25,True,True,75.2,116.53597215140438,98.65410799175393,0.19862774637312428,0.8979444965653959,1.0282163729288663,2.6000682055423803,0.26162161208630885,55.0,0.6909090909090909,75.04229672436001,83.77385630165598,27.059815949992565,-0.7074094832430021,0.32954218731107504,-0.18966226992099008,,,2.6000682055423803,0.26162161208630885,0.9830508474576272,0.3389830508474576,59.0
9,0,585.25,True,True,74.89720611491829,162.4903446253699,142.98099512559446,,,,2.7854441254481612,0.2010147801364506,48.0,0.4166666666666667,79.03908300297525,105.15265297819626,50.06348454447178,-0.7200379493734557,0.3266127604166291,-0.24955433905316854,,,2.7854441254481612,0.17534794208609183,0.9454545454545454,0.32727272727272727,55.0
9,0,615.25,True,True,74.58379578246392,133.3585998359689,102.61525863314786,0.29903219446136364,0.8008982474149283,1.0869081959672622,2.724400240275454,0.21016150805822836,46.0,0.5869565217391305,78.95255506330741,85.48567813478994,58.26174963715828,-0.7218907919081263,0.3480466185518659,-0.24955433905316854,,,2.724400240275454,0.19444644471808387,0.9818181818181818,0.2727272727272727,55.0
9,0,645.25,True,True,77.96954314720811,61.22695418975893,45.005143738943474,0.26702256604488755,0.8255208325615544,1.1991678102960317,2.8040113025786577,0.2690870422282861,44.0,0.6136363636363636,80.74342733262769,95.9476300911321,89.86089592925467,-0.791652709786909,0.32907051827194045,-0.24443992714206286,,,2.8040113025786577,0.21067112269474664,1.0,0.16666666666666666,54.0
9,0,675.25,True,True,77.83783783783782,133.64065893714326,53.86060780876328,0.29390927956124957,0.7926855901484757,1.243468971069274,2.631600988842751,0.4125454896832858,45.0,0.5777777777777777,83.21058021290573,121.11000432088075,77.6188185164374,-0.801822149843113,0.26526320105018364,-0.23725949447083125,,,2.631600988842751,0.3335176375768021,1.0,0.21568627450980393,51.0
9,0,705.25,False,True,,,,,,,,,,,89.37978814032726,136.29867923057918,116.01815892311305,-0.864013096566115,0.3045193521194925,-0.24540978104619865,,,2.5689513912243456,0.29175540783047327,1.0,0.23214285714285715,56.0
9,0,735.25,True,True,79.94448299791812,84.34140188873712,69.95648505418467,0.2991694041341007,0.7928414468033856,1.2143152899506835,2.452799998921885,0.2757159455095979,46.0,0.6739130434782609,85.13912734016873,135.139097155252,120.92035799021964,-0.80344063959606,0.3000611145272354,-0.2487857664069889,,,2.452799998921885,0.24210382824448615,1.0,0.20634920634920634,63.0
9,0,765.25,True,True,78.32835820895522,95.20279322000087,71.41306875417754,0.2447816248867643,0.8284039527742064,1.1797488588919132,2.472025512617905,0.35396278096784095,52.0,0.6923076923076923,79.82824888745776,101.61985707861571,89.56533366772679,-0.6893558860458091,0.28082469642632324,-0.1922268226533549,,,2.472025512617905,0.30292927138245146,1.0,0.171875,64.0
9,0,795.25,True,True,78.51640513552069,126.01033068729913,94.26939455623973,0.2877414281850013,0.8001827078691779,1.156663694035406,2.496096889949741,0.32393063966203595,55.0,0.5818181818181818,80.9667221111792,129.01420974794712,74.47468136413411,-0.7083393709357414,0.30564024934686373,-0.1887749954293546,,,2.496096889949741,0.2758339541363356,1.0,0.18333333333333332,60.0
9,0,825.25,True,True,79.65065502183405,125.00833453722018,109.67506915096625,,,,2.5115701554080427,0.3044639122970165,54.0,0.48148148148148145,84.55776874142252,123.4699964983119,61.954700526129606,-0.7292030101813353,0.3089322189972202,-0.20085186308166947,,,2.5115701554080427,0.27387458637343304,1.0,0.2413793103448276,58.0
9,0,855.25,True,True,76.19047619047619,108.83592804287812,82.30979494416202,0.274767606358111,0.8152674198718218,1.2367067406072212,2.4839842494753506,0.335427669242944,58.0,0.603448275862069,77.61946559870029,72.69237235081323,33.11880839819602,-0.6665938260244711,0.24204765736213502,-0.19305968737827342,,,2.4839842494753506,0.37283387198276774,0.9841269841269841,0.2698412698412698,63.0
9,0,885.25,True,True,74.73382942186605,119.43177405843886,81.56489460086368,0.24801023756548077,0.8457377881956873,1.237933991961945,2.5134838926293273,0.32324222950347836,46.0,0.5869565217391305,75.11640340152621,85.21220076284679,56.203173893755206,-0.6954552934567095,0.259896712806166,-0.2171048917329833,,,2.5134838926293273,0.28486007148286563,1.0,0.22413793103448276,58.0
9,0,915.25,True,True,78.73015873015872,138.56768694124656,47.87702164283915,0.3653853036342264,0.7588766638389243,1.219543789538832,2.649576908320935,0.22788066808777846,44.0,0.5909090909090909,76.71350537959104,104.65611833148316,60.15080024538309,-0.7869067739576902,0.33973624579369355,-0.23297878003484265,,,2.649576908320935,0.24247571876703639,1.0,0.23076923076923078,52.0
9,0,945.25,True,True,75.20564042303172,127.6586679041867,80.49611267263411,0.2754508051802967,0.8259394642068759,1.1369891344361125,2.604676022143323,0.1697718262727887,57.0,0.6666666666666666,75.6991895566429,95.71411068468876,67.80587754245668,-0.7210006640976934,0.32913327766295747,-0.19953691897511822,,,2.604676022143323,0.1697718262727887,1.0,0.17857142857142858,56.0
9,0,975.25,True,True,73.22033898305085,116.14381622789823,115.76099359840035,0.2202360477620098,0.8790263133745626,1.11014515039027,2.543217999735034,0.2842931757025937,54.0,0.6666666666666666,73.30409502716982,81.88810522646547,59.32651917292019,-0.7014741197451042,0.28978403944854225,-0.2272505421872746,,,2.543217999735034,0.2842931757025937,0.9516129032258065,0.12903225806451613,62.0
9,0,1005.25,True,True,72.29693383539538,139.2792752632535,125.48733128288289,0.2878828383864647,0.7935113411897369,1.2703440340201673,2.5323524495721803,0.38396816489626845,49.0,0.673469387755102,73.7666155331605,119.5106461308756,69.06199900007064,-0.7185770312939678,0.265950308433166,-0.2331591700100291,,,2.5323524495721803,0.35221745332877685,1.0,0.21428571428571427,56.0
9,0,1035.25,True,True,75.9978009895547,129.1977149224035,43.783056294855875,0.33333549070195834,0.7370039340405855,1.3024283797736407,2.632891022506724,0.332922455453311,50.0,0.72,82.19135531757149,155.13038525785515,79.65379524864304,-0.6711854324619903,0.27440735011341966,-0.201661322981655,,,2.632891022506724,0.369951871566757,1.0,0.21666666666666667,60.0
9,0,1065.25,True,True,76.20998719590268,86.29674533580405,51.085997052299824,0.2726689610376102,0.807078629779934,1.2161320823386848,2.3734894641892925,0.3601929524304359,66.0,0.803030303030303,76.21421678464237,78.033093291983,44.03096690763701,-0.6274211510786776,0.25843366022915515,-0.2091091471429769,,,2.3734894641892925,0.3601929524304359,0.9852941176470589,0.10294117647058823,68.0
9,0,1095.25,True,True,74.74809160305344,118.17131963515398,72.66533373448571,0.23856335996335618,0.843795972163262,1.2008259119677234,2.3848386261878587,0.3282394318645727,59.0,0.7288135593220338,75.32656563848991,87.44334537082746,60.67225808887873,-0.6423558520582329,0.2510659447457435,-0.21507796614233482,,,2.3848386261878587,0.28546799325473127,0.9692307692307692,0.15384615384615385,65.0
9,0,1125.25,True,True,70.75697211155378,184.57089436815426,121.33730328500903,0.2735494876543,0.815867629669959,1.4085630506421754,2.7801598876535647,0.26477724783917045,50.0,0.52,80.75905327403562,180.4335812791905,91.43942531581555,-0.7362348274995867,0.21727846635579504,-0.21237616015175984,,,2.7801598876535647,0.1959673326497808,0.9333333333333333,0.25,60.0
